shape model output for Neptune's 1-bar isobaric surface. models are described in Mankovich et al. 2026, PSJ.
the models summarized in this file assume the symmetric Voyager wind profile from Tollefson et al. (2018, Icarus 311) Table 1.
the distribution of models in this file comes from Markov chain Monte Carlo fits to the Voyager 2 radio occultation reported in Lindal (1992, AJ 103).
these solutions vary the polar radius to fit the Voyager 2 radio occultation to a Gaussian with standard deviation 5 km.
the wind fit polynomial coefficients are also allowed to vary within their Gaussian uncertainties following T18 Table 1.
this model has wind polynomial cofficients a, b, c:    -3.963516e+02    2.119474e-01   -1.715459e-05
mu=sin(phi), phi [radians], and lat_deg [degrees] refer to planetocentric latitude; lat_pg_deg gives planetographic latitude in degrees.
              mu          phi_rad          lat_deg       lat_pg_deg          psi_rad    omega_rad_s-1             r_km 
   -1.0000000000     1.5707963268    90.0000000000    90.0000000000     0.0000000000     0.0001707127 24284.5085482984
   -0.9998144712     1.5515331758    88.8963027451    88.9761765679     0.0013940612     0.0001705805 24284.8348713283
   -0.9996289425     1.5435536961    88.4391122386    88.5518975815     0.0019684756     0.0001704450 24285.1607136585
   -0.9994434137     1.5374305386    88.0882811581    88.2262030528     0.0024071912     0.0001703099 24285.4860758195
   -0.9992578850     1.5322682374    87.7925030866    87.9515182991     0.0027753390     0.0001701752 24285.8109599327
   -0.9990723562     1.5277199472    87.5319052508    87.7094178834     0.0030981799     0.0001700405 24286.1353675667
   -0.9988868275     1.5236077873    87.2962958471    87.4904554080     0.0033887236     0.0001699066 24286.4592998765
   -0.9987012987     1.5198260904    87.0796205724    87.2890155132     0.0036546312     0.0001697718 24286.7827577418
   -0.9985157699     1.5163060092    86.8779347757    87.1014453294     0.0039009951     0.0001696374 24287.1057418536
   -0.9983302412     1.5129997231    86.6884985354    86.9252055154     0.0041313162     0.0001695033 24287.4282527676
   -0.9981447124     1.5098724146    86.5093169626    86.7584475803     0.0043481495     0.0001693694 24287.7502909387
   -0.9979591837     1.5068978001    86.3388841007    86.5997763930     0.0045534295     0.0001692358 24288.0718567452
   -0.9959183673     1.4804147767    84.8215186329    85.1843549300     0.0063326880     0.0001677757 24291.5782174724
   -0.9938775510     1.4600831244    83.6566007642    84.0936474995     0.0076279045     0.0001663347 24295.0288111550
   -0.9918367347     1.4429339318    82.6740244067    83.1703960785     0.0086633200     0.0001649128 24298.4248569185
   -0.9897959184     1.4278174270    81.8079124837    82.3538096014     0.0095277021     0.0001635099 24301.7674853511
   -0.9877551020     1.4141440401    81.0244851196    81.6127761851     0.0102676161     0.0001621263 24305.0578003687
   -0.9857142857     1.4015635991    80.3036789465    80.9288449207     0.0109112046     0.0001607610 24308.2969497393
   -0.9836734694     1.3898479862    79.6324237728    80.2900220927     0.0114772558     0.0001594139 24311.4860341634
   -0.9816326531     1.3788387766    79.0016425268    79.6880013729     0.0119792217     0.0001580858 24314.6261012654
   -0.9795918367     1.3684206412    78.4047273409    79.1167329893     0.0124268429     0.0001567753 24317.7181942206
   -0.9775510204     1.3585065303    77.8366906282    78.5716746119     0.0128278905     0.0001554832 24320.7633509667
   -0.9755102041     1.3490288258    77.2936581616    78.0492963606     0.0131883745     0.0001542091 24323.7625806222
   -0.9734693878     1.3399337634    76.7725494708    77.5467987406     0.0135131990     0.0001529527 24326.7168714849
   -0.9714285714     1.3311777582    76.2708673246    77.0619178805     0.0138064368     0.0001517140 24329.6271794179
   -0.9693877551     1.3227248956    75.7865539757    76.5927915479     0.0140715002     0.0001504930 24332.4944532249
   -0.9673469388     1.3145451659    75.3178899826    76.1378593141     0.0143111646     0.0001492888 24335.3196248316
   -0.9653061224     1.3066131882    74.8634211408    75.6952958074     0.0145189519     0.0001480451 24338.1033024607
   -0.9632653061     1.2989072697    74.4219045316    75.2637030434     0.0146921557     0.0001467352 24340.8429513979
   -0.9612244898     1.2914086960    73.9922679079    74.8435045088     0.0148568814     0.0001455089 24343.5400311888
   -0.9591836735     1.2841011890    73.5735785965    74.4338282115     0.0150141882     0.0001443590 24346.1973199920
   -0.9571428571     1.2769704845    73.1650193268    74.0338729240     0.0151643560     0.0001432756 24348.8172889880
   -0.9551020408     1.2700040004    72.7658691871    73.6429439050     0.0153078416     0.0001422515 24351.4021042266
   -0.9530612245     1.2631905710    72.3754884407    73.2604284846     0.0154451174     0.0001412809 24353.9536986757
   -0.9510204082     1.2565202341    71.9933062850    72.8857816673     0.0155766339     0.0001403590 24356.4738069262
   -0.9489795918     1.2499840563    71.6188108859    72.5185124649     0.0157027548     0.0001394815 24358.9639966248
   -0.9469387755     1.2435739909    71.2515411916    72.1581733857     0.0158237169     0.0001386439 24361.4256801530
   -0.9448979592     1.2372827589    70.8910801509    71.8043642141     0.0159398139     0.0001378430 24363.8601386526
   -0.9428571429     1.2311037506    70.5370490537    71.4567213512     0.0160513096     0.0001370758 24366.2685430686
   -0.9408163265     1.2250309424    70.1891027733    71.1149133146     0.0161584422     0.0001363395 24368.6519673924
   -0.9387755102     1.2190588266    69.8469257429    70.7786387302     0.0162614593     0.0001356321 24371.0113997694
   -0.9367346939     1.2131823517    69.5102285299    70.4476216493     0.0163605963     0.0001349515 24373.3477465473
   -0.9346938776     1.2073968710    69.1787449051    70.1216030610     0.0164559792     0.0001342956 24375.6618478193
   -0.9326530612     1.2016980990    68.8522293213    69.8003467859     0.0165477715     0.0001336627 24377.9544842931
   -0.9306122449     1.1960820730    68.5304547326    69.4836344394     0.0166361242     0.0001330511 24380.2263806150
   -0.9285714286     1.1905451201    68.2132107017    69.1712636180     0.0167211778     0.0001324596 24382.4782109610
   -0.9265306122     1.1850838286    67.9003017483    68.8630550394     0.0168032148     0.0001318874 24384.7106039228
   -0.9244897959     1.1796950225    67.5915459031    68.5588267152     0.0168822350     0.0001313329 24386.9241467960
   -0.9224489796     1.1743757395    67.2867734365    68.2584138515     0.0169583244     0.0001307948 24389.1193906916
   -0.9204081633     1.1691232113    66.9858257369    67.9616690693     0.0170316791     0.0001302727 24391.2968584352
   -0.9183673469     1.1639348463    66.6885543185    67.6684512518     0.0171024278     0.0001297657 24393.4570370478
   -0.9163265306     1.1588082142    66.3948199388    67.3786196129     0.0171705435     0.0001292724 24395.6003854261
   -0.9142857143     1.1537410325    66.1044918138    67.0920566802     0.0172362585     0.0001287927 24397.7273375076
   -0.9122448980     1.1487311539    65.8174469161    66.8086405620     0.0172995926     0.0001283257 24399.8383042288
   -0.9102040816     1.1437765557    65.5335693460    66.5282574440     0.0173605823     0.0001278705 24401.9336752868
   -0.9081632653     1.1388753294    65.2527497676    66.2508110662     0.0174194558     0.0001274271 24404.0138207273
   -0.9061224490     1.1340256726    64.9748848997    65.9761906962     0.0174760830     0.0001269942 24406.0790923727
   -0.9040816327     1.1292258803    64.6998770572    65.7043157994     0.0175307632     0.0001265723 24408.1298234272
   -0.9020408163     1.1244743380    64.4276337361    65.4350847877     0.0175833379     0.0001261597 24410.1663307134
   -0.9000000000     1.1197695150    64.1580672368    65.1684250856     0.0176340711     0.0001257572 24412.1889168074
   -0.8979591837     1.1151099586    63.8910943224    64.9042459639     0.0176828320     0.0001253632 24414.1978700788
   -0.8959183673     1.1104942885    63.6266359071    64.6424828534     0.0177298739     0.0001249785 24416.1934656373
   -0.8938775510     1.1059211919    63.3646167727    64.3830519610     0.0177750473     0.0001246016 24418.1759661984
   -0.8918367347     1.1013894190    63.1049653087    64.1258966794     0.0178186139     0.0001242332 24420.1456228768
   -0.8897959184     1.0968977787    62.8476132749    63.8709410476     0.0178604390     0.0001238721 24422.1026759143
   -0.8877551020     1.0924451350    62.5924955840    63.6181294952     0.0179006887     0.0001235186 24424.0473553647
   -0.8857142857     1.0880304035    62.3395501007    63.3673996368     0.0179393586     0.0001231722 24425.9798832556
   -0.8836734694     1.0836525480    62.0887174586    63.1186926322     0.0179764580     0.0001228324 24427.9004734137
   -0.8816326531     1.0793105778    61.8399408902    62.8719609087     0.0180121473     0.0001224995 24429.8093307599
   -0.8795918367     1.0750035447    61.5931660703    62.6271444307     0.0180463268     0.0001221727 24431.7066522785
   -0.8775510204     1.0707305406    61.3483409720    62.3841979877     0.0180791155     0.0001218521 24433.5926274601
   -0.8755102041     1.0664906953    61.1054157324    62.1430739872     0.0181105531     0.0001215375 24435.4674387113
   -0.8734693878     1.0622831742    60.8643425293    61.9037224767     0.0181406023     0.0001212284 24437.3312617358
   -0.8714285714     1.0581071761    60.6250754655    61.6661042682     0.0181693802     0.0001209250 24439.1842658895
   -0.8693877551     1.0539619319    60.3875704629    61.4301757201     0.0181968945     0.0001206270 24441.0266145102
   -0.8673469388     1.0498467020    60.1517851626    61.1958933803     0.0182231261     0.0001203339 24442.8584652259
   -0.8653061224     1.0457607758    59.9176788330    60.9632212115     0.0182481570     0.0001200459 24444.6799702417
   -0.8632653061     1.0417034691    59.6852122830    60.7321227626     0.0182720348     0.0001197629 24446.4912766092
   -0.8612244898     1.0376741234    59.4543477825    60.5025581746     0.0182947226     0.0001194844 24448.2925258805
   -0.8591836735     1.0336721045    59.2250489867    60.2744928287     0.0183162504     0.0001192104 24450.0838551274
   -0.8571428571     1.0296968008    58.9972808661    60.0478983159     0.0183367337     0.0001189410 24451.8653981265
   -0.8551020408     1.0257476230    58.7710096411    59.8227377854     0.0183561190     0.0001186759 24453.6372844237
   -0.8530612245     1.0218240020    58.5462027200    59.5989795826     0.0183744225     0.0001184148 24455.3996395193
   -0.8510204082     1.0179253889    58.3228286418    59.3765937142     0.0183916701     0.0001181576 24457.1525850516
   -0.8489795918     1.0140512533    58.1008570218    59.1555555320     0.0184079616     0.0001179046 24458.8962389677
   -0.8469387755     1.0102010827    57.8802585008    58.9358327808     0.0184232467     0.0001176554 24460.6307156859
   -0.8448979592     1.0063743820    57.6610046973    58.7173980736     0.0184375426     0.0001174098 24462.3561262481
   -0.8428571429     1.0025706719    57.4430681625    58.5002252223     0.0184508714     0.0001171677 24464.0725784635
   -0.8408163265     0.9987894889    57.2264223382    58.2842903111     0.0184632792     0.0001169292 24465.7801770448
   -0.8387755102     0.9950303845    57.0110415164    58.0695696185     0.0184748006     0.0001166943 24467.4790237363
   -0.8367346939     0.9912929239    56.7969008020    57.8560369313     0.0184854127     0.0001164626 24469.1692174358
   -0.8346938776     0.9875766864    56.5839760772    57.6436692238     0.0184951345     0.0001162341 24470.8508543090
   -0.8326530612     0.9838812640    56.3722439680    57.4324441754     0.0185039844     0.0001160088 24472.5240278988
   -0.8306122449     0.9802062611    56.1616818123    57.2223401406     0.0185119801     0.0001157865 24474.1888292279
   -0.8285714286     0.9765512941    55.9522676300    57.0133388550     0.0185191865     0.0001155674 24475.8453468974
   -0.8265306122     0.9729159908    55.7439800947    56.8054172110     0.0185255725     0.0001153511 24477.4936671792
   -0.8244897959     0.9692999900    55.5367985066    56.5985552635     0.0185311513     0.0001151378 24479.1338741039
   -0.8224489796     0.9657029407    55.3307027670    56.3927338050     0.0185359384     0.0001149272 24480.7660495453
   -0.8204081633     0.9621245024    55.1256733545    56.1879341760     0.0185399489     0.0001147193 24482.3902733022
   -0.8183673469     0.9585643440    54.9216913014    55.9841382434     0.0185431973     0.0001145140 24484.0066236117
   -0.8163265306     0.9550221437    54.7187381727    55.7813284962     0.0185456997     0.0001143114 24485.6151769406
   -0.8142857143     0.9514975886    54.5167960447    55.5794895720     0.0185475010     0.0001141114 24487.2160077051
   -0.8122448980     0.9479903746    54.3158474857    55.3786027760     0.0185485790     0.0001139139 24488.8091885419
   -0.8102040816     0.9445002057    54.1158755372    55.1786518885     0.0185489465     0.0001137188 24490.3947903699
   -0.8081632653     0.9410267938    53.9168636960    54.9796211230     0.0185486163     0.0001135261 24491.9728824488
   -0.8061224490     0.9375698586    53.7187958976    54.7814951098     0.0185476002     0.0001133357 24493.5435324353
   -0.8040816327     0.9341291270    53.5216564995    54.5842588809     0.0185459102     0.0001131476 24495.1068064367
   -0.8020408163     0.9307043332    53.3254302661    54.3878978555     0.0185435576     0.0001129618 24496.6627690623
   -0.8000000000     0.9272952180    53.1301023542    54.1923978259     0.0185405536     0.0001127781 24498.2114834723
   -0.7979591837     0.9239015290    52.9356582985    53.9977449447     0.0185369089     0.0001125965 24499.7530114247
   -0.7959183673     0.9205230201    52.7420839987    53.8039257115     0.0185326340     0.0001124171 24501.2874133202
   -0.7938775510     0.9171594514    52.5493657065    53.6109278500     0.0185277546     0.0001122397 24502.8147482453
   -0.7918367347     0.9138105888    52.3574900132    53.4187377188     0.0185222666     0.0001120644 24504.3350740133
   -0.7897959184     0.9104762040    52.1664438387    53.2273426168     0.0185161767     0.0001118911 24505.8484472038
   -0.7877551020     0.9071560743    51.9762144194    53.0367303207     0.0185094942     0.0001117197 24507.3549232007
   -0.7857142857     0.9038499823    51.7867892983    52.8468888989     0.0185022284     0.0001115502 24508.8545562285
   -0.7836734694     0.9005577156    51.5981563144    52.6578067024     0.0184943882     0.0001113826 24510.3473993867
   -0.7816326531     0.8972790671    51.4103035930    52.4694723548     0.0184859822     0.0001112168 24511.8335046841
   -0.7795918367     0.8940138344    51.2232195364    52.2818747441     0.0184770190     0.0001110528 24513.3129230700
   -0.7775510204     0.8907618196    51.0368928148    52.0950030135     0.0184675068     0.0001108906 24514.7857044659
   -0.7755102041     0.8875228296    50.8513123577    51.9088465540     0.0184574537     0.0001107301 24516.2518977954
   -0.7734693878     0.8842966755    50.6664673458    51.7233949960     0.0184468675     0.0001105713 24517.7115513460
   -0.7714285714     0.8810831728    50.4823472028    51.5386382020     0.0184357558     0.0001104142 24519.1647123804
   -0.7693877551     0.8778821410    50.2989415880    51.3545662592     0.0184241262     0.0001102587 24520.6114269844
   -0.7673469388     0.8746934035    50.1162403889    51.1711694731     0.0184119859     0.0001101048 24522.0517403748
   -0.7653061224     0.8715167878    49.9342337142    50.9884383599     0.0183993421     0.0001099525 24523.4856969232
   -0.7632653061     0.8683521249    49.7529118872    50.8063636410     0.0183862016     0.0001098018 24524.9133401788
   -0.7612244898     0.8651992496    49.5722654391    50.6249362366     0.0183725714     0.0001096526 24526.3347128901
   -0.7591836735     0.8620580001    49.3922851027    50.4441472592     0.0183584579     0.0001095049 24527.7498570267
   -0.7571428571     0.8589282182    49.2129618067    50.2639880090     0.0183438678     0.0001093587 24529.1588137990
   -0.7551020408     0.8558097488    49.0342866700    50.0844499672     0.0183288072     0.0001092140 24530.5616236785
   -0.7530612245     0.8527024401    48.8562509955    49.9055247917     0.0183132825     0.0001090706 24531.9583264166
   -0.7510204082     0.8496061434    48.6788462656    49.7272043115     0.0182972996     0.0001089287 24533.3489610631
   -0.7489795918     0.8465207132    48.5020641364    49.5494805219     0.0182808646     0.0001087882 24534.7335659838
   -0.7469387755     0.8434460067    48.3258964330    49.3723455800     0.0182639831     0.0001086490 24536.1121788778
   -0.7448979592     0.8403818842    48.1503351447    49.1957917999     0.0182466608     0.0001085112 24537.4848367938
   -0.7428571429     0.8373282086    47.9753724206    49.0198116481     0.0182289034     0.0001083747 24538.8515761467
   -0.7408163265     0.8342848456    47.8010005647    48.8443977400     0.0182107161     0.0001082395 24540.2124327325
   -0.7387755102     0.8312516635    47.6272120320    48.6695428352     0.0181921044     0.0001081056 24541.5674417434
   -0.7367346939     0.8282285332    47.4539994242    48.4952398335     0.0181730734     0.0001079730 24542.9166377827
   -0.7346938776     0.8252153280    47.2813554856    48.3214817718     0.0181536283     0.0001078415 24544.2600548783
   -0.7326530612     0.8222119238    47.1092730996    48.1482618196     0.0181337741     0.0001077113 24545.5977264967
   -0.7306122449     0.8192181987    46.9377452847    47.9755732760     0.0181135155     0.0001075823 24546.9296855557
   -0.7285714286     0.8162340331    46.7667651908    47.8034095660     0.0180928575     0.0001074545 24548.2559644376
   -0.7265306122     0.8132593097    46.5963260961    47.6317642373     0.0180718048     0.0001073279 24549.5765950013
   -0.7244897959     0.8102939134    46.4264214035    47.4606309571     0.0180503619     0.0001072024 24550.8916085943
   -0.7224489796     0.8073377312    46.2570446372    47.2900035092     0.0180285334     0.0001070780 24552.2010360642
   -0.7204081633     0.8043906520    46.0881894401    47.1198763075     0.0180063327     0.0001069548 24553.5049077699
   -0.7183673469     0.8014525670    45.9198495701    46.9502430524     0.0179837589     0.0001068327 24554.8032534091
   -0.7163265306     0.7985233692    45.7520188977    46.7810976703     0.0179608128     0.0001067117 24556.0961017864
   -0.7142857143     0.7956029535    45.5846914028    46.6124343804     0.0179374988     0.0001065917 24557.3834818016
   -0.7122448980     0.7926912167    45.4178611722    46.4442475046     0.0179138209     0.0001064729 24558.6654219519
   -0.7102040816     0.7897880574    45.2515223968    46.2765314644     0.0178897831     0.0001063550 24559.9419502939
   -0.7081632653     0.7868933760    45.0856693690    46.1092807788     0.0178653894     0.0001062382 24561.2130944536
   -0.7061224490     0.7840070746    44.9202964804    45.9424900619     0.0178406436     0.0001061224 24562.4788816350
   -0.7040816327     0.7811290570    44.7553982192    45.7761540205     0.0178155496     0.0001060075 24563.7393386295
   -0.7020408163     0.7782592286    44.5909691678    45.6102674516     0.0177901111     0.0001058937 24564.9944918241
   -0.7000000000     0.7753974966    44.4270040008    45.4448252408     0.0177643318     0.0001057808 24566.2443672104
   -0.6979591837     0.7725437695    44.2634974825    45.2798223600     0.0177382154     0.0001056689 24567.4889903921
