shape model output for Neptune's 1-bar isobaric surface. models are described in Mankovich et al. 2026, PSJ.
the models summarized in this file assume the symmetric Voyager wind profile from Tollefson et al. (2018, Icarus 311) Table 1.
the distribution of models in this file comes from Markov chain Monte Carlo fits to the Voyager 2 radio occultation reported in Lindal (1992, AJ 103).
these solutions vary the polar radius to fit the Voyager 2 radio occultation to a Gaussian with standard deviation 5 km.
the wind fit polynomial coefficients are also allowed to vary within their Gaussian uncertainties following T18 Table 1.
this model has wind polynomial cofficients a, b, c:    -3.961477e+02    1.929762e-01   -5.391252e-06
mu=sin(phi), phi [radians], and lat_deg [degrees] refer to planetocentric latitude; lat_pg_deg gives planetographic latitude in degrees.
              mu          phi_rad          lat_deg       lat_pg_deg          psi_rad    omega_rad_s-1             r_km 
   -1.0000000000     1.5707963268    90.0000000000    90.0000000000     0.0000000000     0.0002361990 24216.1407590905
   -0.9998144712     1.5515331758    88.8963027451    89.0372406422     0.0024598303     0.0002359281 24216.7151586025
   -0.9996289425     1.5435536961    88.4391122386    88.6379724143     0.0034707648     0.0002356503 24217.2882856297
   -0.9994434137     1.5374305386    88.0882811581    88.3312780884     0.0042410965     0.0002353734 24217.8601394659
   -0.9992578850     1.5322682374    87.7925030866    88.0724520845     0.0048860318     0.0002350973 24218.4307270356
   -0.9990723562     1.5277199472    87.5319052508    87.8441832835     0.0054502799     0.0002348212 24219.0000536554
   -0.9988868275     1.5236077873    87.2962958471    87.6376022294     0.0059569201     0.0002345467 24219.5681233022
   -0.9987012987     1.5198260904    87.0796205724    87.4474292005     0.0064194716     0.0002342702 24220.1349390401
   -0.9985157699     1.5163060092    86.8779347757    87.2702404005     0.0068470248     0.0002339948 24220.7005032993
   -0.9983302412     1.5129997231    86.6884985354    87.1036517721     0.0072457909     0.0002337199 24221.2648185891
   -0.9981447124     1.5098724146    86.5093169626    86.9459284970     0.0076203088     0.0002334455 24221.8278873050
   -0.9979591837     1.5068978001    86.3388841007    86.7957617863     0.0079740199     0.0002331715 24222.3897116189
   -0.9959183673     1.4804147767    84.8215186329    85.4516167498     0.0109972867     0.0002301785 24228.4884440227
   -0.9938775510     1.4600831244    83.6566007642    84.4091822286     0.0131350244     0.0002272246 24234.4405749321
   -0.9918367347     1.4429339318    82.6740244067    83.5215084999     0.0147913878     0.0002243099 24240.2497534602
   -0.9897959184     1.4278174270    81.8079124837    82.7319853328     0.0161281137     0.0002214341 24245.9194248414
   -0.9877551020     1.4141440401    81.0244851196    82.0117483494     0.0172309939     0.0002185978 24251.4531288957
   -0.9857142857     1.4015635991    80.3036789465    81.3437295697     0.0181523078     0.0002157991 24256.8542128084
   -0.9836734694     1.3898479862    79.6324237728    80.7168815031     0.0189273580     0.0002130377 24262.1260091351
   -0.9816326531     1.3788387766    79.0016425268    80.1235949503     0.0195817638     0.0002103154 24267.2718194110
   -0.9795918367     1.3684206412    78.4047273409    79.5583224022     0.0201340321     0.0002076290 24272.2948599223
   -0.9775510204     1.3585065303    77.8366906282    79.0169417862     0.0205992687     0.0002049803 24277.1982271559
   -0.9755102041     1.3490288258    77.2936581616    78.4962468078     0.0209891314     0.0002023685 24281.9849963783
   -0.9734693878     1.3399337634    76.7725494708    77.9937072615     0.0213132241     0.0001997930 24286.6581966278
   -0.9714285714     1.3311777582    76.2708673246    77.5072866926     0.0215795889     0.0001972539 24291.2207818675
   -0.9693877551     1.3227248956    75.7865539757    77.0353152927     0.0217949966     0.0001947509 24295.6756413053
   -0.9673469388     1.3145451659    75.3178899826    76.5763859458     0.0219648982     0.0001922823 24300.0255763571
   -0.9653061224     1.3066131882    74.8634211408    76.1244727125     0.0220095020     0.0001894342 24304.2700702206
   -0.9632653061     1.2989072697    74.4219045316    75.6741824064     0.0218563721     0.0001858493 24308.3785744260
   -0.9612244898     1.2914086960    73.9922679079    75.2366077099     0.0217178266     0.0001825457 24312.3506813237
   -0.9591836735     1.2841011890    73.5735785965    74.8108136870     0.0215938259     0.0001794977 24316.1988520043
   -0.9571428571     1.2769704845    73.1650193268    74.3958078305     0.0214813118     0.0001766691 24319.9340069788
   -0.9551020408     1.2700040004    72.7658691871    73.9907769253     0.0213786731     0.0001740343 24323.5655110279
   -0.9530612245     1.2631905710    72.3754884407    73.5950201452     0.0212848436     0.0001715728 24327.1014537813
   -0.9510204082     1.2565202341    71.9933062850    73.2079216192     0.0211990367     0.0001692678 24330.5490948593
   -0.9489795918     1.2499840563    71.6188108859    72.8289204238     0.0211203957     0.0001671038 24333.9148306776
   -0.9469387755     1.2435739909    71.2515411916    72.4574903650     0.0210477837     0.0001650657 24337.2042130969
   -0.9448979592     1.2372827589    70.8910801509    72.0931774187     0.0209805553     0.0001631418 24340.4223630551
   -0.9428571429     1.2311037506    70.5370490537    71.7355697664     0.0209181326     0.0001613219 24343.5737495592
   -0.9408163265     1.2250309424    70.1891027733    71.3842926794     0.0208599990     0.0001595970 24346.6625138168
   -0.9387755102     1.2190588266    69.8469257429    71.0390115265     0.0208058219     0.0001579595 24349.6922450556
   -0.9367346939     1.2131823517    69.5102285299    70.6994218054     0.0207553381     0.0001564031 24352.6663328621
   -0.9346938776     1.2073968710    69.1787449051    70.3652229850     0.0207079490     0.0001549203 24355.5878254204
   -0.9326530612     1.2016980990    68.8522293213    70.0361498601     0.0206633115     0.0001535053 24358.4594654387
   -0.9306122449     1.1960820730    68.5304547326    69.7119578467     0.0206211195     0.0001521529 24361.2838035723
   -0.9285714286     1.1905451201    68.2132107017    69.3924208466     0.0205810996     0.0001508585 24364.0631594428
   -0.9265306122     1.1850838286    67.9003017483    69.0773628443     0.0205435916     0.0001496204 24366.7996786473
   -0.9244897959     1.1796950225    67.5915459031    68.7665616892     0.0205078942     0.0001484328 24369.4953679205
   -0.9224489796     1.1743757395    67.2867734365    68.4598303127     0.0204737048     0.0001472917 24372.1520662676
   -0.9204081633     1.1691232113    66.9858257369    68.1570191182     0.0204411807     0.0001461954 24374.7714479416
   -0.9183673469     1.1639348463    66.6885543185    67.8579759663     0.0204102581     0.0001451415 24377.3550744542
   -0.9163265306     1.1588082142    66.3948199388    67.5625274946     0.0203803415     0.0001441254 24379.9044061701
   -0.9142857143     1.1537410325    66.1044918138    67.2705653814     0.0203518231     0.0001431470 24382.4208446962
   -0.9122448980     1.1487311539    65.8174469161    66.9819460576     0.0203243442     0.0001422031 24384.9056762863
   -0.9102040816     1.1437765557    65.5335693460    66.6965386661     0.0202976437     0.0001412910 24387.3600559304
   -0.9081632653     1.1388753294    65.2527497676    66.4142591214     0.0202721625     0.0001404111 24389.7851072421
   -0.9061224490     1.1340256726    64.9748848997    66.1349583337     0.0202471010     0.0001395587 24392.1819126135
   -0.9040816327     1.1292258803    64.6998770572    65.8585801095     0.0202231833     0.0001387357 24394.5514261931
   -0.9020408163     1.1244743380    64.4276337361    65.5849834114     0.0201995624     0.0001379372 24396.8945740242
   -0.9000000000     1.1197695150    64.1580672368    65.3141163922     0.0201768641     0.0001371649 24399.2122704635
   -0.8979591837     1.1151099586    63.8910943224    65.0458554221     0.0201543833     0.0001364148 24401.5053179867
   -0.8959183673     1.1104942885    63.6266359071    64.7801561917     0.0201327270     0.0001356885 24403.7744850392
   -0.8938775510     1.1059211919    63.3646167727    64.5169017668     0.0201111671     0.0001349821 24406.0205219009
   -0.8918367347     1.1013894190    63.1049653087    64.2560576898     0.0200903520     0.0001342975 24408.2441253911
   -0.8897959184     1.0968977787    62.8476132749    63.9975187861     0.0200696373     0.0001336311 24410.4459609086
   -0.8877551020     1.0924451350    62.5924955840    63.7412399407     0.0200493713     0.0001329839 24412.6266427036
   -0.8857142857     1.0880304035    62.3395501007    63.4871478653     0.0200293595     0.0001323542 24414.7867739988
   -0.8836734694     1.0836525480    62.0887174586    63.2351752148     0.0200094626     0.0001317408 24416.9269126549
   -0.8816326531     1.0793105778    61.8399408902    62.9852850364     0.0199900264     0.0001311446 24419.0476118211
   -0.8795918367     1.0750035447    61.5931660703    62.7373963877     0.0199705864     0.0001305631 24421.1493708814
   -0.8775510204     1.0707305406    61.3483409720    62.4914702766     0.0199513701     0.0001299966 24423.2326883929
   -0.8755102041     1.0664906953    61.1054157324    62.2474560005     0.0199323629     0.0001294447 24425.2980336520
   -0.8734693878     1.0622831742    60.8643425293    62.0052918945     0.0199133230     0.0001289058 24427.3458520448
   -0.8714285714     1.0581071761    60.6250754655    61.7649454253     0.0198944838     0.0001283805 24429.3765771405
   -0.8693877551     1.0539619319    60.3875704629    61.5263671291     0.0198757513     0.0001278679 24431.3906084747
   -0.8673469388     1.0498467020    60.1517851626    61.2895051299     0.0198569594     0.0001273669 24433.3883345385
   -0.8653061224     1.0457607758    59.9176788330    61.0543266371     0.0198382466     0.0001268778 24435.3701289708
   -0.8632653061     1.0417034691    59.6852122830    60.8207947433     0.0198196529     0.0001264003 24437.3363489253
   -0.8612244898     1.0376741234    59.4543477825    60.5888600906     0.0198009752     0.0001259332 24439.2873359687
   -0.8591836735     1.0336721045    59.2250489867    60.3584862632     0.0197822123     0.0001254761 24441.2234169184
   -0.8571428571     1.0296968008    58.9972808661    60.1296522397     0.0197636088     0.0001250299 24443.1449047583
   -0.8551020408     1.0257476230    58.7710096411    59.9023107399     0.0197449290     0.0001245932 24445.0521070179
   -0.8530612245     1.0218240020    58.5462027200    59.6764274061     0.0197261421     0.0001241656 24446.9453191784
   -0.8510204082     1.0179253889    58.3228286418    59.4519706899     0.0197072465     0.0001237467 24448.8248218266
   -0.8489795918     1.0140512533    58.1008570218    59.2289220268     0.0196884485     0.0001233373 24450.6908844094
   -0.8469387755     1.0102010827    57.8802585008    59.0072400930     0.0196695394     0.0001229361 24452.5437657817
   -0.8448979592     1.0063743820    57.6610046973    58.7868955528     0.0196505024     0.0001225430 24454.3837147205
   -0.8428571429     1.0025706719    57.4430681625    58.5678608694     0.0196313361     0.0001221575 24456.2109704078
   -0.8408163265     0.9987894889    57.2264223382    58.3501132108     0.0196121055     0.0001217798 24458.0257643674
   -0.8387755102     0.9950303845    57.0110415164    58.1336288727     0.0195928455     0.0001214099 24459.8283238263
   -0.8367346939     0.9912929239    56.7969008020    57.9183762914     0.0195734398     0.0001210470 24461.6188651126
   -0.8346938776     0.9875766864    56.5839760772    57.7043312690     0.0195538869     0.0001206909 24463.3975969215
   -0.8326530612     0.9838812640    56.3722439680    57.4914703472     0.0195341854     0.0001203414 24465.1647209373
   -0.8306122449     0.9802062611    56.1616818123    57.2797707763     0.0195143338     0.0001199984 24466.9204321379
   -0.8285714286     0.9765512941    55.9522676300    57.0692174989     0.0194944528     0.0001196622 24468.6649190833
   -0.8265306122     0.9729159908    55.7439800947    56.8597820126     0.0194744173     0.0001193320 24470.3983641883
   -0.8244897959     0.9692999900    55.5367985066    56.6514431156     0.0194542184     0.0001190078 24472.1209439797
   -0.8224489796     0.9657029407    55.3307027670    56.4441806375     0.0194338550     0.0001186893 24473.8328292818
   -0.8204081633     0.9621245024    55.1256733545    56.2379749833     0.0194133257     0.0001183763 24475.5341855584
   -0.8183673469     0.9585643440    54.9216913014    56.0328071114     0.0193926293     0.0001180689 24477.2251732750
   -0.8163265306     0.9550221437    54.7187381727    55.8286587997     0.0193717694     0.0001177667 24478.9059479290
   -0.8142857143     0.9514975886    54.5167960447    55.6255163989     0.0193508207     0.0001174700 24480.5766602439
   -0.8122448980     0.9479903746    54.3158474857    55.4233574045     0.0193296946     0.0001171783 24482.2374563561
   -0.8102040816     0.9445002057    54.1158755372    55.2221648016     0.0193083901     0.0001168915 24483.8884779929
   -0.8081632653     0.9410267938    53.9168636960    55.0219220307     0.0192869064     0.0001166095 24485.5298626417
   -0.8061224490     0.9375698586    53.7187958976    54.8226129712     0.0192652423     0.0001163320 24487.1617437111
   -0.8040816327     0.9341291270    53.5216564995    54.6242219254     0.0192433969     0.0001160591 24488.7842506838
   -0.8020408163     0.9307043332    53.3254302661    54.4267336035     0.0192213693     0.0001157906 24490.3975092628
   -0.8000000000     0.9272952180    53.1301023542    54.2301331087     0.0191991585     0.0001155263 24492.0016415104
   -0.7979591837     0.9239015290    52.9356582985    54.0344059239     0.0191767637     0.0001152663 24493.5967659808
   -0.7959183673     0.9205230201    52.7420839987    53.8395378979     0.0191541839     0.0001150103 24495.1829978467
   -0.7938775510     0.9171594514    52.5493657065    53.6455172737     0.0191314539     0.0001147585 24496.7604491766
   -0.7918367347     0.9138105888    52.3574900132    53.4523287327     0.0191085404     0.0001145106 24498.3292300071
   -0.7897959184     0.9104762040    52.1664438387    53.2599587538     0.0190854357     0.0001142665 24499.8894466556
   -0.7877551020     0.9071560743    51.9762144194    53.0683945398     0.0190621391     0.0001140260 24501.4412024430
   -0.7857142857     0.9038499823    51.7867892983    52.8776236011     0.0190386502     0.0001137892 24502.9845980177
   -0.7836734694     0.9005577156    51.5981563144    52.6876337456     0.0190149683     0.0001135559 24504.5197314450
   -0.7816326531     0.8972790671    51.4103035930    52.4984130691     0.0189910930     0.0001133261 24506.0466982931
   -0.7795918367     0.8940138344    51.2232195364    52.3099499457     0.0189670237     0.0001130996 24507.5655917152
   -0.7775510204     0.8907618196    51.0368928148    52.1222330194     0.0189427601     0.0001128764 24509.0765025278
   -0.7755102041     0.8875228296    50.8513123577    51.9352511947     0.0189183016     0.0001126565 24510.5795192862
   -0.7734693878     0.8842966755    50.6664673458    51.7489936291     0.0188936479     0.0001124397 24512.0747283570
   -0.7714285714     0.8810831728    50.4823472028    51.5634497247     0.0188687986     0.0001122259 24513.5622139870
   -0.7693877551     0.8778821410    50.2989415880    51.3786091211     0.0188437533     0.0001120152 24515.0420583700
   -0.7673469388     0.8746934035    50.1162403889    51.1944616873     0.0188185117     0.0001118075 24516.5143417107
   -0.7653061224     0.8715167878    49.9342337142    51.0109975157     0.0187930736     0.0001116026 24517.9791422857
   -0.7632653061     0.8683521249    49.7529118872    50.8282069146     0.0187674387     0.0001114006 24519.4365369632
   -0.7612244898     0.8651992496    49.5722654391    50.6460804019     0.0187416067     0.0001112013 24520.8866014504
   -0.7591836735     0.8620580001    49.3922851027    50.4646086989     0.0187155774     0.0001110047 24522.3294075650
   -0.7571428571     0.8589282182    49.2129618067    50.2837827243     0.0186893507     0.0001108108 24523.7650254214
   -0.7551020408     0.8558097488    49.0342866700    50.1035935883     0.0186629264     0.0001106195 24525.1935236637
   -0.7530612245     0.8527024401    48.8562509955    49.9240325872     0.0186363045     0.0001104307 24526.6149695078
   -0.7510204082     0.8496061434    48.6788462656    49.7450911979     0.0186094847     0.0001102444 24528.0294287817
   -0.7489795918     0.8465207132    48.5020641364    49.5667610730     0.0185824671     0.0001100605 24529.4369659641
   -0.7469387755     0.8434460067    48.3258964330    49.3890340353     0.0185552516     0.0001098791 24530.8376442223
   -0.7448979592     0.8403818842    48.1503351447    49.2119020735     0.0185278381     0.0001096999 24532.2315254478
   -0.7428571429     0.8373282086    47.9753724206    49.0353573374     0.0185002268     0.0001095231 24533.6186702917
   -0.7408163265     0.8342848456    47.8010005647    48.8593921333     0.0184724176     0.0001093485 24534.9991381977
   -0.7387755102     0.8312516635    47.6272120320    48.6839989198     0.0184444107     0.0001091762 24536.3729874349
   -0.7367346939     0.8282285332    47.4539994242    48.5091703035     0.0184162060     0.0001090059 24537.7402751289
   -0.7346938776     0.8252153280    47.2813554856    48.3348990354     0.0183878038     0.0001088379 24539.1010572921
   -0.7326530612     0.8222119238    47.1092730996    48.1611780063     0.0183592040     0.0001086719 24540.4553888303
   -0.7306122449     0.8192181987    46.9377452847    47.9880002437     0.0183304070     0.0001085079 24541.8033225968
   -0.7285714286     0.8162340331    46.7667651908    47.8153589077     0.0183014129     0.0001083459 24543.1449098170
   -0.7265306122     0.8132593097    46.5963260961    47.6432472878     0.0182722218     0.0001081859 24544.4802008978
   -0.7244897959     0.8102939134    46.4264214035    47.4716587994     0.0182428340     0.0001080279 24545.8092453058
   -0.7224489796     0.8073377312    46.2570446372    47.3005869806     0.0182132498     0.0001078717 24547.1320915902
   -0.7204081633     0.8043906520    46.0881894401    47.1300264627     0.0181834863     0.0001077175 24548.4487874064
   -0.7183673469     0.8014525670    45.9198495701    46.9599704290     0.0181535336     0.0001075651 24549.7593795371
   -0.7163265306     0.7985233692    45.7520188977    46.7904124089     0.0181233857     0.0001074145 24551.0639139145
   -0.7142857143     0.7956029535    45.5846914028    46.6213463984     0.0180930429     0.0001072656 24552.3624356406
   -0.7122448980     0.7926912167    45.4178611722    46.4527665012     0.0180625054     0.0001071185 24553.6549890070
   -0.7102040816     0.7897880574    45.2515223968    46.2846669265     0.0180317737     0.0001069731 24554.9416175148
   -0.7081632653     0.7868933760    45.0856693690    46.1170419857     0.0180008480     0.0001068294 24556.2223638930
   -0.7061224490     0.7840070746    44.9202964804    45.9498860905     0.0179697286     0.0001066873 24557.4972701166
   -0.7040816327     0.7811290570    44.7553982192    45.7831937504     0.0179384161     0.0001065468 24558.7663774247
   -0.7020408163     0.7782592286    44.5909691678    45.6169595697     0.0179069106     0.0001064079 24560.0297261293
   -0.7000000000     0.7753974966    44.4270040008    45.4511782460     0.0178752127     0.0001062705 24561.2873547763
   -0.6979591837     0.7725437695    44.2634974825    45.2858445672     0.0178433227     0.0001061347 24562.5393013824
