shape model output for Neptune's 1-bar isobaric surface. models are described in Mankovich et al. 2026, PSJ.
the models summarized in this file assume the symmetric Voyager wind profile from Tollefson et al. (2018, Icarus 311) Table 1.
the distribution of models in this file comes from Markov chain Monte Carlo fits to the Voyager 2 radio occultation reported in Lindal (1992, AJ 103).
these solutions vary the polar radius to fit the Voyager 2 radio occultation to a Gaussian with standard deviation 5 km.
the wind fit polynomial coefficients are also allowed to vary within their Gaussian uncertainties following T18 Table 1.
this model has wind polynomial cofficients a, b, c:    -3.967930e+02    2.005991e-01   -1.142684e-05
mu=sin(phi), phi [radians], and lat_deg [degrees] refer to planetocentric latitude; lat_pg_deg gives planetographic latitude in degrees.
              mu          phi_rad          lat_deg       lat_pg_deg          psi_rad    omega_rad_s-1             r_km 
   -1.0000000000     1.5707963268    90.0000000000    90.0000000000     0.0000000000     0.0001995391 24255.0266806916
   -0.9998144712     1.5515331758    88.8963027451    89.0007389620     0.0018227558     0.0001993459 24255.4529197774
   -0.9996289425     1.5435536961    88.4391122386    88.5865232679     0.0025728078     0.0001991477 24255.8783681324
   -0.9994434137     1.5374305386    88.0882811581    88.2684756571     0.0031449873     0.0001989502 24256.3030253657
   -0.9992578850     1.5322682374    87.7925030866    88.0001751922     0.0036245620     0.0001987533 24256.7268951646
   -0.9990723562     1.5277199472    87.5319052508    87.7636445064     0.0040446130     0.0001985563 24257.1499803651
   -0.9988868275     1.5236077873    87.2962958471    87.5496691214     0.0044221979     0.0001983606 24257.5722830864
   -0.9987012987     1.5198260904    87.0796205724    87.3527687009     0.0047673342     0.0001981633 24257.9938049577
   -0.9985157699     1.5163060092    86.8779347757    87.1693823829     0.0050867203     0.0001979669 24258.4145472672
   -0.9983302412     1.5129997231    86.6884985354    86.9970332502     0.0053849466     0.0001977708 24258.8345110575
   -0.9981447124     1.5098724146    86.5093169626    86.8339185009     0.0056653656     0.0001975751 24259.2536978880
   -0.9979591837     1.5068978001    86.3388841007    86.6786777014     0.0059305171     0.0001973796 24259.6721117422
   -0.9959183673     1.4804147767    84.8215186329    85.2920560982     0.0082124280     0.0001952448 24264.2239257967
   -0.9938775510     1.4600831244    83.6566007642    84.2209286356     0.0098493794     0.0001931379 24268.6842520369
   -0.9918367347     1.4429339318    82.6740244067    83.3121733336     0.0111377999     0.0001910588 24273.0552222319
   -0.9897959184     1.4278174270    81.8079124837    82.5066743667     0.0121956955     0.0001890075 24277.3389404954
   -0.9877551020     1.4141440401    81.0244851196    81.7742191465     0.0130853273     0.0001869845 24281.5374074121
   -0.9857142857     1.4015635991    80.3036789465    81.0969095010     0.0138444849     0.0001849882 24285.6526109503
   -0.9836734694     1.3898479862    79.6324237728    80.4631293549     0.0144985475     0.0001830186 24289.6865459042
   -0.9816326531     1.3788387766    79.0016425268    79.8648501622     0.0150658154     0.0001810768 24293.6410929402
   -0.9795918367     1.3684206412    78.4047273409    79.2962222425     0.0155595213     0.0001791606 24297.5181346375
   -0.9775510204     1.3585065303    77.8366906282    78.7528703250     0.0159903522     0.0001772714 24301.3195225490
   -0.9755102041     1.3490288258    77.2936581616    78.2313931280     0.0163665627     0.0001754084 24305.0470466754
   -0.9734693878     1.3399337634    76.7725494708    77.7290980678     0.0166949225     0.0001735713 24308.7024668903
   -0.9714285714     1.3311777582    76.2708673246    77.2438114940     0.0169810792     0.0001717602 24312.2875134072
   -0.9693877551     1.3227248956    75.7865539757    76.7737474791     0.0172297770     0.0001699749 24315.8038946164
   -0.9673469388     1.3145451659    75.3178899826    76.3174063867     0.0174448522     0.0001682141 24319.2532208350
   -0.9653061224     1.3066131882    74.8634211408    75.8712292811     0.0175895703     0.0001662540 24322.6354091720
   -0.9632653061     1.2989072697    74.4219045316    75.4321341035     0.0176318322     0.0001639114 24325.9366746494
   -0.9612244898     1.2914086960    73.9922679079    75.0049290035     0.0176742703     0.0001617428 24329.1572863571
   -0.9591836735     1.2841011890    73.5735785965    74.5887241689     0.0177176326     0.0001597323 24332.3038813926
   -0.9571428571     1.2769704845    73.1650193268    74.1826468015     0.0177609500     0.0001578582 24335.3822606439
   -0.9551020408     1.2700040004    72.7658691871    73.7859589620     0.0178039252     0.0001561046 24338.3974448150
   -0.9530612245     1.2631905710    72.3754884407    73.3980162564     0.0178464771     0.0001544593 24341.3538723271
   -0.9510204082     1.2565202341    71.9933062850    73.0182483223     0.0178886132     0.0001529118 24344.2554547514
   -0.9489795918     1.2499840563    71.6188108859    72.6461385674     0.0179302505     0.0001514527 24347.1056584237
   -0.9469387755     1.2435739909    71.2515411916    72.2812096960     0.0179711056     0.0001500727 24349.9076146860
   -0.9448979592     1.2372827589    70.8910801509    71.9230415358     0.0180111239     0.0001487648 24352.6641361057
   -0.9428571429     1.2311037506    70.5370490537    71.5712524913     0.0180502551     0.0001475225 24355.3777740524
   -0.9408163265     1.2250309424    70.1891027733    71.2254948301     0.0180884537     0.0001463404 24358.0507717187
   -0.9387755102     1.2190588266    69.8469257429    70.8854548622     0.0181257525     0.0001452138 24360.6852469202
   -0.9367346939     1.2131823517    69.5102285299    70.5508460729     0.0181622024     0.0001441388 24363.2830775371
   -0.9346938776     1.2073968710    69.1787449051    70.2213932327     0.0181976463     0.0001431107 24365.8460108106
   -0.9326530612     1.2016980990    68.8522293213    69.8968490169     0.0182320531     0.0001421259 24368.3756393773
   -0.9306122449     1.1960820730    68.5304547326    69.5769849385     0.0182653978     0.0001411813 24370.8734514201
   -0.9285714286     1.1905451201    68.2132107017    69.2615894181     0.0182976604     0.0001402739 24373.3407726040
   -0.9265306122     1.1850838286    67.9003017483    68.9504853435     0.0183291615     0.0001394028 24375.7788564388
   -0.9244897959     1.1796950225    67.5915459031    68.6434743761     0.0183596153     0.0001385642 24378.1888933282
   -0.9224489796     1.1743757395    67.2867734365    68.3403828497     0.0183889533     0.0001377558 24380.5719378387
   -0.9204081633     1.1691232113    66.9858257369    68.0410629939     0.0184173645     0.0001369763 24382.9290200703
   -0.9183673469     1.1639348463    66.6885543185    67.7453694990     0.0184449045     0.0001362244 24385.2610708735
   -0.9163265306     1.1588082142    66.3948199388    67.4531481063     0.0184713111     0.0001354971 24387.5689603229
   -0.9142857143     1.1537410325    66.1044918138    67.1642856630     0.0184968921     0.0001347945 24389.8535264796
   -0.9122448980     1.1487311539    65.8174469161    66.8786513625     0.0185215116     0.0001341143 24392.1155171868
   -0.9102040816     1.1437765557    65.5335693460    66.5961244103     0.0185450844     0.0001334550 24394.3556847503
   -0.9081632653     1.1388753294    65.2527497676    66.3166140805     0.0185679351     0.0001328169 24396.5746914034
   -0.9061224490     1.1340256726    64.9748848997    66.0399934214     0.0185896506     0.0001321969 24398.7731948808
   -0.9040816327     1.1292258803    64.6998770572    65.7661926296     0.0186107176     0.0001315962 24400.9517955497
   -0.9020408163     1.1244743380    64.4276337361    65.4950933465     0.0186306848     0.0001310118 24403.1110697517
   -0.9000000000     1.1197695150    64.1580672368    65.2266321452     0.0186499759     0.0001304447 24405.2515590583
   -0.8979591837     1.1151099586    63.8910943224    64.9607042802     0.0186682155     0.0001298924 24407.3737736302
   -0.8959183673     1.1104942885    63.6266359071    64.6972541157     0.0186858128     0.0001293559 24409.4782061259
   -0.8938775510     1.1059211919    63.3646167727    64.4361836789     0.0187023707     0.0001288326 24411.5653194502
   -0.8918367347     1.1013894190    63.1049653087    64.1774461013     0.0187183210     0.0001283239 24413.6355491899
   -0.8897959184     1.0968977787    62.8476132749    63.9209528960     0.0187333104     0.0001278275 24415.6893055220
   -0.8877551020     1.0924451350    62.5924955840    63.6666531493     0.0187475862     0.0001273439 24417.7269873524
   -0.8857142857     1.0880304035    62.3395501007    63.4144798597     0.0187610635     0.0001268720 24419.7489856275
   -0.8836734694     1.0836525480    62.0887174586    63.1643705931     0.0187736888     0.0001264112 24421.7556622184
   -0.8816326531     1.0793105778    61.8399408902    62.9162824924     0.0187857048     0.0001259620 24423.7473615166
   -0.8795918367     1.0750035447    61.5931660703    62.6701465151     0.0187968547     0.0001255227 24425.7244115683
   -0.8775510204     1.0707305406    61.3483409720    62.4259202372     0.0188073061     0.0001250936 24427.6871253077
   -0.8755102041     1.0664906953    61.1054157324    62.1835547889     0.0188170763     0.0001246744 24429.6358075416
   -0.8734693878     1.0622831742    60.8643425293    61.9429951803     0.0188260402     0.0001242641 24431.5707510831
   -0.8714285714     1.0581071761    60.6250754655    61.7042051895     0.0188343667     0.0001238630 24433.4922347896
   -0.8693877551     1.0539619319    60.3875704629    61.4671386955     0.0188420202     0.0001234706 24435.4005254722
   -0.8673469388     1.0498467020    60.1517851626    61.2317486209     0.0188489181     0.0001230862 24437.2958785662
   -0.8653061224     1.0457607758    59.9176788330    60.9980003965     0.0188551683     0.0001227099 24439.1785390348
   -0.8632653061     1.0417034691    59.6852122830    60.7658574208     0.0188608157     0.0001223415 24441.0487465150
   -0.8612244898     1.0376741234    59.4543477825    60.5352757231     0.0188657515     0.0001219804 24442.9067272006
   -0.8591836735     1.0336721045    59.2250489867    60.3062199363     0.0188699928     0.0001216262 24444.7526977690
   -0.8571428571     1.0296968008    58.9972808661    60.0786649240     0.0188737123     0.0001212795 24446.5868682268
   -0.8551020408     1.0257476230    58.7710096411    59.8525693028     0.0188767772     0.0001209394 24448.4094422193
   -0.8530612245     1.0218240020    58.5462027200    59.6279002640     0.0188791837     0.0001206055 24450.2206173227
   -0.8510204082     1.0179253889    58.3228286418    59.4046271610     0.0188809460     0.0001202779 24452.0205852961
   -0.8489795918     1.0140512533    58.1008570218    59.1827280418     0.0188822114     0.0001199567 24453.8095282534
   -0.8469387755     1.0102010827    57.8802585008    58.9621666988     0.0188828603     0.0001196413 24455.5876212487
   -0.8448979592     1.0063743820    57.6610046973    58.7429149124     0.0188828955     0.0001193315 24457.3550352436
   -0.8428571429     1.0025706719    57.4430681625    58.5249459231     0.0188823290     0.0001190271 24459.1119352741
   -0.8408163265     0.9987894889    57.2264223382    58.3082363109     0.0188812157     0.0001187282 24460.8584807208
   -0.8387755102     0.9950303845    57.0110415164    58.0927623809     0.0188795907     0.0001184347 24462.5948255628
   -0.8367346939     0.9912929239    56.7969008020    57.8784955860     0.0188773902     0.0001181462 24464.3211186178
   -0.8346938776     0.9875766864    56.5839760772    57.6654124005     0.0188746245     0.0001178625 24466.0375037683
   -0.8326530612     0.9838812640    56.3722439680    57.4534900174     0.0188713036     0.0001175835 24467.7441201724
   -0.8306122449     0.9802062611    56.1616818123    57.2427063186     0.0188674369     0.0001173090 24469.4411025769
   -0.8285714286     0.9765512941    55.9522676300    57.0330444629     0.0188631142     0.0001170394 24471.1285824490
   -0.8265306122     0.9729159908    55.7439800947    56.8244789811     0.0188582631     0.0001167741 24472.8066875597
   -0.8244897959     0.9692999900    55.5367985066    56.6169893852     0.0188528874     0.0001165130 24474.4755418700
   -0.8224489796     0.9657029407    55.3307027670    56.4105560531     0.0188469953     0.0001162560 24476.1352656830
   -0.8204081633     0.9621245024    55.1256733545    56.2051599220     0.0188405948     0.0001160030 24477.7859757898
   -0.8183673469     0.9585643440    54.9216913014    56.0007824667     0.0188336938     0.0001157539 24479.4277856068
   -0.8163265306     0.9550221437    54.7187381727    55.7974058702     0.0188263029     0.0001155086 24481.0608053064
   -0.8142857143     0.9514975886    54.5167960447    55.5950155311     0.0188184801     0.0001152672 24482.6851419410
   -0.8122448980     0.9479903746    54.3158474857    55.3935910829     0.0188101743     0.0001150295 24484.3008995620
   -0.8102040816     0.9445002057    54.1158755372    55.1931159609     0.0188013922     0.0001147952 24485.9081793312
   -0.8081632653     0.9410267938    53.9168636960    54.9935740429     0.0187921406     0.0001145644 24487.5070796286
   -0.8061224490     0.9375698586    53.7187958976    54.7949496324     0.0187824259     0.0001143370 24489.0976961539
   -0.8040816327     0.9341291270    53.5216564995    54.5972274441     0.0187722543     0.0001141128 24490.6801220237
   -0.8020408163     0.9307043332    53.3254302661    54.4003925879     0.0187616318     0.0001138918 24492.2544478642
   -0.8000000000     0.9272952180    53.1301023542    54.2044305556     0.0187505644     0.0001136740 24493.8207618996
   -0.7979591837     0.9239015290    52.9356582985    54.0093272073     0.0187390575     0.0001134592 24495.3791500361
   -0.7959183673     0.9205230201    52.7420839987    53.8150687581     0.0187271169     0.0001132473 24496.9296959430
   -0.7938775510     0.9171594514    52.5493657065    53.6216431625     0.0187147721     0.0001130385 24498.4724811545
   -0.7918367347     0.9138105888    52.3574900132    53.4290360418     0.0187020063     0.0001128326 24500.0075864293
   -0.7897959184     0.9104762040    52.1664438387    53.2372343348     0.0186888198     0.0001126294 24501.5350900319
   -0.7877551020     0.9071560743    51.9762144194    53.0462255664     0.0186752175     0.0001124290 24503.0550676404
   -0.7857142857     0.9038499823    51.7867892983    52.8559975601     0.0186612046     0.0001122312 24504.5675931435
   -0.7836734694     0.9005577156    51.5981563144    52.6665384281     0.0186467856     0.0001120361 24506.0727386983
   -0.7816326531     0.8972790671    51.4103035930    52.4778365617     0.0186319652     0.0001118434 24507.5705747851
   -0.7795918367     0.8940138344    51.2232195364    52.2898806228     0.0186167480     0.0001116533 24509.0611702608
   -0.7775510204     0.8907618196    51.0368928148    52.1026595346     0.0186011383     0.0001114656 24510.5445924091
   -0.7755102041     0.8875228296    50.8513123577    51.9161624736     0.0185851406     0.0001112803 24512.0209069896
   -0.7734693878     0.8842966755    50.6664673458    51.7303788614     0.0185687589     0.0001110974 24513.4901782842
   -0.7714285714     0.8810831728    50.4823472028    51.5452983575     0.0185519974     0.0001109168 24514.9524691422
   -0.7693877551     0.8778821410    50.2989415880    51.3609108510     0.0185348602     0.0001107384 24516.4078410232
   -0.7673469388     0.8746934035    50.1162403889    51.1772064545     0.0185173511     0.0001105622 24517.8563540387
   -0.7653061224     0.8715167878    49.9342337142    50.9941754968     0.0184994740     0.0001103882 24519.2980669917
   -0.7632653061     0.8683521249    49.7529118872    50.8118085162     0.0184812326     0.0001102162 24520.7330374149
   -0.7612244898     0.8651992496    49.5722654391    50.6300962547     0.0184626307     0.0001100464 24522.1613216080
   -0.7591836735     0.8620580001    49.3922851027    50.4490296515     0.0184436717     0.0001098786 24523.5829746726
   -0.7571428571     0.8589282182    49.2129618067    50.2685998375     0.0184243593     0.0001097128 24524.9980505464
   -0.7551020408     0.8558097488    49.0342866700    50.0887981292     0.0184046970     0.0001095490 24526.4066020363
   -0.7530612245     0.8527024401    48.8562509955    49.9096160241     0.0183846880     0.0001093871 24527.8086808498
   -0.7510204082     0.8496061434    48.6788462656    49.7310451947     0.0183643357     0.0001092270 24529.2043375859
   -0.7489795918     0.8465207132    48.5020641364    49.5530774839     0.0183436434     0.0001090689 24530.5936215088
   -0.7469387755     0.8434460067    48.3258964330    49.3757049001     0.0183226143     0.0001089125 24531.9765810371
   -0.7448979592     0.8403818842    48.1503351447    49.1989196126     0.0183012515     0.0001087579 24533.3532636727
   -0.7428571429     0.8373282086    47.9753724206    49.0227139470     0.0182795580     0.0001086051 24534.7237159741
   -0.7408163265     0.8342848456    47.8010005647    48.8470803808     0.0182575370     0.0001084540 24536.0879835818
   -0.7387755102     0.8312516635    47.6272120320    48.6720115394     0.0182351914     0.0001083046 24537.4461112419
   -0.7367346939     0.8282285332    47.4539994242    48.4975001922     0.0182125241     0.0001081568 24538.7981428295
   -0.7346938776     0.8252153280    47.2813554856    48.3235392481     0.0181895381     0.0001080107 24540.1441213713
   -0.7326530612     0.8222119238    47.1092730996    48.1501217526     0.0181662360     0.0001078661 24541.4840890671
   -0.7306122449     0.8192181987    46.9377452847    47.9772408832     0.0181426208     0.0001077231 24542.8180873109
   -0.7285714286     0.8162340331    46.7667651908    47.8048899469     0.0181186950     0.0001075817 24544.1461567112
   -0.7265306122     0.8132593097    46.5963260961    47.6330623760     0.0180944616     0.0001074418 24545.4683371104
   -0.7244897959     0.8102939134    46.4264214035    47.4617517250     0.0180699230     0.0001073034 24546.7846676039
   -0.7224489796     0.8073377312    46.2570446372    47.2909516680     0.0180450818     0.0001071664 24548.0951865584
   -0.7204081633     0.8043906520    46.0881894401    47.1206567118     0.0180199533     0.0001070310 24549.3999316299
   -0.7183673469     0.8014525670    45.9198495701    46.9508603280     0.0179945323     0.0001068970 24550.6989397803
   -0.7163265306     0.7985233692    45.7520188977    46.7815562670     0.0179688169     0.0001067643 24551.9922472946
   -0.7142857143     0.7956029535    45.5846914028    46.6127386479     0.0179428093     0.0001066331 24553.2798897968
   -0.7122448980     0.7926912167    45.4178611722    46.4444016949     0.0179165120     0.0001065032 24554.5619022652
   -0.7102040816     0.7897880574    45.2515223968    46.2765397344     0.0178899274     0.0001063746 24555.8383190481
   -0.7081632653     0.7868933760    45.0856693690    46.1091471924     0.0178630578     0.0001062473 24557.1091738779
   -0.7061224490     0.7840070746    44.9202964804    45.9422185923     0.0178359056     0.0001061213 24558.3744998856
   -0.7040816327     0.7811290570    44.7553982192    45.7757485523     0.0178084728     0.0001059966 24559.6343296144
   -0.7020408163     0.7782592286    44.5909691678    45.6097317830     0.0177807619     0.0001058731 24560.8886951154
   -0.7000000000     0.7753974966    44.4270040008    45.4441630858     0.0177527750     0.0001057508 24562.1376281186
   -0.6979591837     0.7725437695    44.2634974825    45.2790373499     0.0177245144     0.0001056298 24563.3811594958
