shape model output for Neptune's 1-bar isobaric surface. models are described in Mankovich et al. 2026, PSJ.
the models summarized in this file assume the symmetric Voyager wind profile from Tollefson et al. (2018, Icarus 311) Table 1.
the distribution of models in this file comes from Markov chain Monte Carlo fits to the Voyager 2 radio occultation reported in Lindal (1992, AJ 103).
these solutions vary the polar radius to fit the Voyager 2 radio occultation to a Gaussian with standard deviation 5 km.
the wind fit polynomial coefficients are also allowed to vary within their Gaussian uncertainties following T18 Table 1.
this model has wind polynomial cofficients a, b, c:    -3.980941e+02    1.995600e-01   -4.729328e-06
mu=sin(phi), phi [radians], and lat_deg [degrees] refer to planetocentric latitude; lat_pg_deg gives planetographic latitude in degrees.
              mu          phi_rad          lat_deg       lat_pg_deg          psi_rad    omega_rad_s-1             r_km 
   -1.0000000000     1.5707963268    90.0000000000    90.0000000000     0.0000000000     0.0002500093 24206.8224926493
   -0.9998144712     1.5515331758    88.8963027451    89.0525961304     0.0027278342     0.0002497091 24207.4592645583
   -0.9996289425     1.5435536961    88.4391122386    88.6596145338     0.0038484911     0.0002494013 24208.0945625576
   -0.9994434137     1.5374305386    88.0882811581    88.3576942017     0.0047021447     0.0002490945 24208.7283856262
   -0.9992578850     1.5322682374    87.7925030866    88.1028513245     0.0054165986     0.0002487886 24209.3607394313
   -0.9990723562     1.5277199472    87.5319052508    87.8780551316     0.0060414551     0.0002484826 24209.9916283811
   -0.9988868275     1.5236077873    87.2962958471    87.6745813873     0.0066023282     0.0002481786 24210.6210557727
   -0.9987012987     1.5198260904    87.0796205724    87.4872347457     0.0071142094     0.0002478722 24211.2490250670
   -0.9985157699     1.5163060092    86.8779347757    87.3126491444     0.0075871970     0.0002475670 24211.8755390852
   -0.9983302412     1.5129997231    86.6884985354    87.1484796071     0.0080281842     0.0002472624 24212.5005998155
   -0.9981447124     1.5098724146    86.5093169626    86.9930199307     0.0084422094     0.0002469584 24213.1242104179
   -0.9979591837     1.5068978001    86.3388841007    86.8449830677     0.0088330933     0.0002466548 24213.7463745773
   -0.9959183673     1.4804147767    84.8215186329    85.5186425590     0.0121671078     0.0002433385 24220.4957485127
   -0.9938775510     1.4600831244    83.6566007642    84.4881967001     0.0145140871     0.0002400656 24227.0749510218
   -0.9918367347     1.4429339318    82.6740244067    83.6092972377     0.0163235903     0.0002368361 24233.4881909896
   -0.9897959184     1.4278174270    81.8079124837    82.8263911301     0.0177758057     0.0002336496 24239.7395956637
   -0.9877551020     1.4141440401    81.0244851196    82.1111835129     0.0189664649     0.0002305070 24245.8332860213
   -0.9857142857     1.4015635991    80.3036789465    81.4469574413     0.0199539740     0.0002274060 24251.7732373509
   -0.9836734694     1.3898479862    79.6324237728    80.8229061720     0.0207778376     0.0002243463 24257.5633680270
   -0.9816326531     1.3788387766    79.0016425268    80.2315983375     0.0214667786     0.0002213300 24263.2075603059
   -0.9795918367     1.3684206412    78.4047273409    79.6676146029     0.0220415408     0.0002183534 24268.7095862549
   -0.9775510204     1.3585065303    77.8366906282    79.1269405520     0.0225191093     0.0002154187 24274.0731424125
   -0.9755102041     1.3490288258    77.2936581616    78.6064528253     0.0229125893     0.0002125247 24279.3018704006
   -0.9734693878     1.3399337634    76.7725494708    78.1036903574     0.0232327913     0.0002096710 24284.3992981816
   -0.9714285714     1.3311777582    76.2708673246    77.6166751786     0.0234887782     0.0002068577 24289.3689342938
   -0.9693877551     1.3227248956    75.7865539757    77.1437870109     0.0236881852     0.0002040844 24294.2141606708
   -0.9673469388     1.3145451659    75.3178899826    76.6836582208     0.0238371526     0.0002013491 24298.9383240099
   -0.9653061224     1.3066131882    74.8634211408    76.2295322718     0.0238431372     0.0001981942 24303.5405209992
   -0.9632653061     1.2989072697    74.4219045316    75.7753895382     0.0236227697     0.0001942261 24307.9862244613
   -0.9612244898     1.2914086960    73.9922679079    75.3342460038     0.0234219363     0.0001905708 24312.2746631795
   -0.9591836735     1.2841011890    73.5735785965    74.9051509270     0.0232403214     0.0001871998 24316.4205831539
   -0.9571428571     1.2769704845    73.1650193268    74.4870697534     0.0230741328     0.0001840727 24320.4366960828
   -0.9551020408     1.2700040004    72.7658691871    74.0791629427     0.0229213001     0.0001811609 24324.3339381552
   -0.9530612245     1.2631905710    72.3754884407    73.6807100181     0.0227804140     0.0001784417 24328.1218720243
   -0.9510204082     1.2565202341    71.9933062850    73.2910792862     0.0226504118     0.0001758964 24331.8089010035
   -0.9489795918     1.2499840563    71.6188108859    72.9096944326     0.0225301681     0.0001735077 24335.4024358777
   -0.9469387755     1.2435739909    71.2515411916    72.5360123111     0.0224182502     0.0001712588 24338.9090278184
   -0.9448979592     1.2372827589    70.8910801509    72.1695671986     0.0223138084     0.0001691368 24342.3344916639
   -0.9428571429     1.2311037506    70.5370490537    71.8099368865     0.0222160837     0.0001671302 24345.6841537378
   -0.9408163265     1.2250309424    70.1891027733    71.4567373524     0.0221243971     0.0001652290 24348.9626822729
   -0.9387755102     1.2190588266    69.8469257429    71.1096268233     0.0220382913     0.0001634249 24352.1743755427
   -0.9367346939     1.2131823517    69.5102285299    70.7682946531     0.0219573961     0.0001617107 24355.3230535263
   -0.9346938776     1.2073968710    69.1787449051    70.4324316316     0.0218809612     0.0001600781 24358.4122565240
   -0.9326530612     1.2016980990    68.8522293213    70.1017664681     0.0218085373     0.0001585207 24361.4452240772
   -0.9306122449     1.1960820730    68.5304547326    69.7760491000     0.0217397229     0.0001570327 24364.4248506137
   -0.9285714286     1.1905451201    68.2132107017    69.4550485048     0.0216741584     0.0001556090 24367.3538417637
   -0.9265306122     1.1850838286    67.9003017483    69.1385891744     0.0216121927     0.0001542478 24370.2346668352
   -0.9244897959     1.1796950225    67.5915459031    68.8264407855     0.0215529816     0.0001529424 24373.0696025327
   -0.9224489796     1.1743757395    67.2867734365    68.5184117186     0.0214961432     0.0001516886 24375.8607443277
   -0.9204081633     1.1691232113    66.9858257369    68.2143518631     0.0214418258     0.0001504844 24378.6100881153
   -0.9183673469     1.1639348463    66.6885543185    67.9141068095     0.0213899261     0.0001493272 24381.3193957971
   -0.9163265306     1.1588082142    66.3948199388    67.6174966564     0.0213397344     0.0001482119 24383.9903894067
   -0.9142857143     1.1537410325    66.1044918138    67.3244148607     0.0212916738     0.0001471382 24386.6246391651
   -0.9122448980     1.1487311539    65.8174469161    67.0347135106     0.0212453099     0.0001461028 24389.2236216005
   -0.9102040816     1.1437765557    65.5335693460    66.7482583435     0.0212003224     0.0001451025 24391.7886830034
   -0.9081632653     1.1388753294    65.2527497676    66.4649676770     0.0211571938     0.0001441379 24394.3211115544
   -0.9061224490     1.1340256726    64.9748848997    66.1846847971     0.0211149915     0.0001432036 24396.8220960947
   -0.9040816327     1.1292258803    64.6998770572    65.9073583387     0.0210745240     0.0001423019 24399.2927751366
   -0.9020408163     1.1244743380    64.4276337361    65.6328394480     0.0210348078     0.0001414273 24401.7341943181
   -0.9000000000     1.1197695150    64.1580672368    65.3610803862     0.0209965404     0.0001405817 24404.1473707648
   -0.8979591837     1.1151099586    63.8910943224    65.0919510251     0.0209589033     0.0001397605 24406.5332598766
   -0.8959183673     1.1104942885    63.6266359071    64.8254110770     0.0209225737     0.0001389658 24408.8927487609
   -0.8938775510     1.1059211919    63.3646167727    64.5613370652     0.0208867093     0.0001381929 24411.2266595639
   -0.8918367347     1.1013894190    63.1049653087    64.2996989299     0.0208520354     0.0001374441 24413.5357941943
   -0.8897959184     1.0968977787    62.8476132749    64.0403857407     0.0208178068     0.0001367156 24415.8209130867
   -0.8877551020     1.0924451350    62.5924955840    63.7833544716     0.0207844085     0.0001360081 24418.0827197716
   -0.8857142857     1.0880304035    62.3395501007    63.5285297013     0.0207516088     0.0001353199 24420.3219059823
   -0.8836734694     1.0836525480    62.0887174586    63.2758424306     0.0207192394     0.0001346498 24422.5391186791
   -0.8816326531     1.0793105778    61.8399408902    63.0252578260     0.0206876832     0.0001339987 24424.7349638436
   -0.8795918367     1.0750035447    61.5931660703    62.7766908407     0.0206564040     0.0001333637 24426.9100141227
   -0.8775510204     1.0707305406    61.3483409720    62.5301037383     0.0206256513     0.0001327454 24429.0648414507
   -0.8755102041     1.0664906953    61.1054157324    62.2854452259     0.0205953999     0.0001321432 24431.1999654783
   -0.8734693878     1.0622831742    60.8643425293    62.0426513525     0.0205653686     0.0001315553 24433.3159039072
   -0.8714285714     1.0581071761    60.6250754655    61.8016909259     0.0205358138     0.0001309823 24435.4131311829
   -0.8693877551     1.0539619319    60.3875704629    61.5625133590     0.0205066221     0.0001304234 24437.4921094940
   -0.8673469388     1.0498467020    60.1517851626    61.3250651381     0.0204775986     0.0001298772 24439.5532871493
   -0.8653061224     1.0457607758    59.9176788330    61.0893141429     0.0204488938     0.0001293442 24441.5970857334
   -0.8632653061     1.0417034691    59.6852122830    60.8552234023     0.0204205463     0.0001288239 24443.6239064464
   -0.8612244898     1.0376741234    59.4543477825    60.6227417046     0.0203923209     0.0001283151 24445.6341236194
   -0.8591836735     1.0336721045    59.2250489867    60.3918323063     0.0203642106     0.0001278174 24447.6281197471
   -0.8571428571     1.0296968008    58.9972808661    60.1624756785     0.0203364859     0.0001273316 24449.6062564911
   -0.8551020408     1.0257476230    58.7710096411    59.9346225003     0.0203088756     0.0001268563 24451.5688817236
   -0.8530612245     1.0218240020    58.5462027200    59.7082379042     0.0202813400     0.0001263909 24453.5163254932
   -0.8510204082     1.0179253889    58.3228286418    59.4832900579     0.0202538726     0.0001259353 24455.4488872073
   -0.8489795918     1.0140512533    58.1008570218    59.2597616325     0.0202267012     0.0001254900 24457.3668704912
   -0.8469387755     1.0102010827    57.8802585008    59.0376095282     0.0201995860     0.0001250538 24459.2705667869
   -0.8448979592     1.0063743820    57.6610046973    58.8168040481     0.0201725042     0.0001246264 24461.1602660585
   -0.8428571429     1.0025706719    57.4430681625    58.5973174127     0.0201454498     0.0001242074 24463.0362445504
   -0.8408163265     0.9987894889    57.2264223382    58.3791270314     0.0201184922     0.0001237971 24464.8987626190
   -0.8387755102     0.9950303845    57.0110415164    58.1622092297     0.0200916668     0.0001233952 24466.7480796738
   -0.8367346939     0.9912929239    56.7969008020    57.9465313998     0.0200648391     0.0001230010 24468.5844300631
   -0.8346938776     0.9875766864    56.5839760772    57.7320691336     0.0200380040     0.0001226144 24470.4080415376
   -0.8326530612     0.9838812640    56.3722439680    57.5187987688     0.0200111563     0.0001222350 24472.2191406442
   -0.8306122449     0.9802062611    56.1616818123    57.3066973580     0.0199842913     0.0001218627 24474.0179448617
   -0.8285714286     0.9765512941    55.9522676300    57.0957505120     0.0199575412     0.0001214979 24475.8046766269
   -0.8265306122     0.9729159908    55.7439800947    56.8859286703     0.0199307625     0.0001211398 24477.5795453476
   -0.8244897959     0.9692999900    55.5367985066    56.6772104015     0.0199039424     0.0001207881 24479.3427480520
   -0.8224489796     0.9657029407    55.3307027670    56.4695753634     0.0198770766     0.0001204428 24481.0944742665
   -0.8204081633     0.9621245024    55.1256733545    56.2630037943     0.0198501609     0.0001201035 24482.8349024260
   -0.8183673469     0.9585643440    54.9216913014    56.0574764911     0.0198231912     0.0001197703 24484.5642119770
   -0.8163265306     0.9550221437    54.7187381727    55.8529751100     0.0197961691     0.0001194428 24486.2825801150
   -0.8142857143     0.9514975886    54.5167960447    55.6494863700     0.0197691756     0.0001191214 24487.9901765802
   -0.8122448980     0.9479903746    54.3158474857    55.4469870175     0.0197421091     0.0001188055 24489.6871647596
   -0.8102040816     0.9445002057    54.1158755372    55.2454598968     0.0197149663     0.0001184949 24491.3737005255
   -0.8081632653     0.9410267938    53.9168636960    55.0448883118     0.0196877436     0.0001181895 24493.0499380504
   -0.8061224490     0.9375698586    53.7187958976    54.8452560095     0.0196604378     0.0001178892 24494.7160292266
   -0.8040816327     0.9341291270    53.5216564995    54.6465471635     0.0196330458     0.0001175939 24496.3721202607
   -0.8020408163     0.9307043332    53.3254302661    54.4487463589     0.0196055644     0.0001173033 24498.0183518966
   -0.8000000000     0.9272952180    53.1301023542    54.2518385773     0.0195779904     0.0001170175 24499.6548596277
   -0.7979591837     0.9239015290    52.9356582985    54.0558091834     0.0195503211     0.0001167363 24501.2817738990
   -0.7959183673     0.9205230201    52.7420839987    53.8606439111     0.0195225534     0.0001164595 24502.8992202997
   -0.7938775510     0.9171594514    52.5493657065    53.6663311290     0.0194947243     0.0001161873 24504.5073266817
   -0.7918367347     0.9138105888    52.3574900132    53.4728551929     0.0194667947     0.0001159193 24506.1062193963
   -0.7897959184     0.9104762040    52.1664438387    53.2802024309     0.0194387545     0.0001156555 24507.6960157559
   -0.7877551020     0.9071560743    51.9762144194    53.0883599448     0.0194106012     0.0001153957 24509.2768301510
   -0.7857142857     0.9038499823    51.7867892983    52.8973151469     0.0193823325     0.0001151399 24510.8487741488
   -0.7836734694     0.9005577156    51.5981563144    52.7070557499     0.0193539462     0.0001148879 24512.4119565865
   -0.7816326531     0.8972790671    51.4103035930    52.5175697569     0.0193254403     0.0001146398 24513.9664836613
   -0.7795918367     0.8940138344    51.2232195364    52.3288454519     0.0192968125     0.0001143953 24515.5124590162
   -0.7775510204     0.8907618196    51.0368928148    52.1408713910     0.0192680610     0.0001141544 24517.0499842860
   -0.7755102041     0.8875228296    50.8513123577    51.9536363940     0.0192391839     0.0001139170 24518.5791600613
   -0.7734693878     0.8842966755    50.6664673458    51.7671295351     0.0192101792     0.0001136831 24520.1000814636
   -0.7714285714     0.8810831728    50.4823472028    51.5813401359     0.0191810451     0.0001134526 24521.6128410358
   -0.7693877551     0.8778821410    50.2989415880    51.3962577570     0.0191517801     0.0001132253 24523.1175292630
   -0.7673469388     0.8746934035    50.1162403889    51.2118721913     0.0191223823     0.0001130013 24524.6142346354
   -0.7653061224     0.8715167878    49.9342337142    51.0281734566     0.0190928503     0.0001127804 24526.1030437086
   -0.7632653061     0.8683521249    49.7529118872    50.8451517888     0.0190631825     0.0001125627 24527.5840411615
   -0.7612244898     0.8651992496    49.5722654391    50.6627976352     0.0190333774     0.0001123479 24529.0573098518
   -0.7591836735     0.8620580001    49.3922851027    50.4811016488     0.0190034337     0.0001121361 24530.5229308700
   -0.7571428571     0.8589282182    49.2129618067    50.3000546812     0.0189733499     0.0001119272 24531.9809835906
   -0.7551020408     0.8558097488    49.0342866700    50.1196477780     0.0189431249     0.0001117211 24533.4315457218
   -0.7530612245     0.8527024401    48.8562509955    49.9398721719     0.0189127574     0.0001115178 24534.8746933535
   -0.7510204082     0.8496061434    48.6788462656    49.7607192783     0.0188822462     0.0001113172 24536.3104984958
   -0.7489795918     0.8465207132    48.5020641364    49.5821806893     0.0188515902     0.0001111193 24537.7390309921
   -0.7469387755     0.8434460067    48.3258964330    49.4042481693     0.0188207883     0.0001109240 24539.1603612376
   -0.7448979592     0.8403818842    48.1503351447    49.2269136499     0.0187898396     0.0001107312 24540.5745580000
   -0.7428571429     0.8373282086    47.9753724206    49.0501692251     0.0187587430     0.0001105409 24541.9816884653
   -0.7408163265     0.8342848456    47.8010005647    48.8740071471     0.0187274978     0.0001103531 24543.3818182828
   -0.7387755102     0.8312516635    47.6272120320    48.6984198215     0.0186961029     0.0001101677 24544.7750116073
   -0.7367346939     0.8282285332    47.4539994242    48.5233998036     0.0186645576     0.0001099847 24546.1613311406
   -0.7346938776     0.8252153280    47.2813554856    48.3489397937     0.0186328612     0.0001098040 24547.5408381716
   -0.7326530612     0.8222119238    47.1092730996    48.1750326339     0.0186010129     0.0001096255 24548.9135926142
   -0.7306122449     0.8192181987    46.9377452847    48.0016713038     0.0185690120     0.0001094493 24550.2796530445
   -0.7285714286     0.8162340331    46.7667651908    47.8288489169     0.0185368580     0.0001092753 24551.6390767371
   -0.7265306122     0.8132593097    46.5963260961    47.6565587172     0.0185045501     0.0001091033 24552.9919196987
   -0.7244897959     0.8102939134    46.4264214035    47.4847940760     0.0184720878     0.0001089335 24554.3382367024
   -0.7224489796     0.8073377312    46.2570446372    47.3135484879     0.0184394708     0.0001087658 24555.6780813193
   -0.7204081633     0.8043906520    46.0881894401    47.1428166435     0.0184067171     0.0001086001 24557.0115059626
   -0.7183673469     0.8014525670    45.9198495701    46.9725916228     0.0183738150     0.0001084365 24558.3385626428
   -0.7163265306     0.7985233692    45.7520188977    46.8028668774     0.0183407572     0.0001082748 24559.6593024222
   -0.7142857143     0.7956029535    45.5846914028    46.6336363638     0.0183075432     0.0001081151 24560.9737750565
   -0.7122448980     0.7926912167    45.4178611722    46.4648941470     0.0182741728     0.0001079572 24562.2820292821
   -0.7102040816     0.7897880574    45.2515223968    46.2966343986     0.0182406455     0.0001078012 24563.5841128414
   -0.7081632653     0.7868933760    45.0856693690    46.1288513934     0.0182069610     0.0001076470 24564.8800725073
   -0.7061224490     0.7840070746    44.9202964804    45.9615395070     0.0181731191     0.0001074945 24566.1699541066
   -0.7040816327     0.7811290570    44.7553982192    45.7946932137     0.0181391196     0.0001073438 24567.4538025431
   -0.7020408163     0.7782592286    44.5909691678    45.6283070838     0.0181049621     0.0001071949 24568.7316618196
   -0.7000000000     0.7753974966    44.4270040008    45.4623757813     0.0180706466     0.0001070476 24570.0035750595
   -0.6979591837     0.7725437695    44.2634974825    45.2968940617     0.0180361728     0.0001069020 24571.2695845279
