shape model output for Neptune's 1-bar isobaric surface. models are described in Mankovich et al. 2026, PSJ.
the models summarized in this file assume the symmetric Voyager wind profile from Tollefson et al. (2018, Icarus 311) Table 1.
the distribution of models in this file comes from Markov chain Monte Carlo fits to the Voyager 2 radio occultation reported in Lindal (1992, AJ 103).
these solutions vary the polar radius to fit the Voyager 2 radio occultation to a Gaussian with standard deviation 5 km.
the wind fit polynomial coefficients are also allowed to vary within their Gaussian uncertainties following T18 Table 1.
this model has wind polynomial cofficients a, b, c:    -3.978832e+02    2.023311e-01   -1.391120e-05
mu=sin(phi), phi [radians], and lat_deg [degrees] refer to planetocentric latitude; lat_pg_deg gives planetographic latitude in degrees.
              mu          phi_rad          lat_deg       lat_pg_deg          psi_rad    omega_rad_s-1             r_km 
   -1.0000000000     1.5707963268    90.0000000000    90.0000000000     0.0000000000     0.0001822971 24279.3917411693
   -0.9998144712     1.5515331758    88.8963027451    88.9856621573     0.0015596160     0.0001821404 24279.7567742726
   -0.9996289425     1.5435536961    88.4391122386    88.5652702060     0.0022018719     0.0001819797 24280.1212083557
   -0.9994434137     1.5374305386    88.0882811581    88.2425298826     0.0026921481     0.0001818195 24280.4850406006
   -0.9992578850     1.5322682374    87.7925030866    87.9703119796     0.0031033506     0.0001816598 24280.8482747908
   -0.9990723562     1.5277199472    87.5319052508    87.7303640577     0.0034637596     0.0001815001 24281.2109140213
   -0.9988868275     1.5236077873    87.2962958471    87.5133292454     0.0037879474     0.0001813414 24281.5729606590
   -0.9987012987     1.5198260904    87.0796205724    87.3136443288     0.0040844851     0.0001811814 24281.9344165520
   -0.9985157699     1.5163060092    86.8779347757    87.1276919373     0.0043590848     0.0001810221 24282.2952831807
   -0.9983302412     1.5129997231    86.6884985354    86.9529568270     0.0046156679     0.0001808631 24282.6555617575
   -0.9981447124     1.5098724146    86.5093169626    86.7876081425     0.0048570974     0.0001807044 24283.0152532931
   -0.9979591837     1.5068978001    86.3388841007    86.6302641437     0.0050855411     0.0001805459 24283.3743586900
   -0.9959183673     1.4804147767    84.8215186329    85.2259976275     0.0070594902     0.0001788146 24287.2860911628
   -0.9938775510     1.4600831244    83.6566007642    84.1428928295     0.0084873977     0.0001771060 24291.1284951132
   -0.9918367347     1.4429339318    82.6740244067    83.2252863471     0.0096213359     0.0001754201 24294.9030976191
   -0.9897959184     1.4278174270    81.8079124837    82.4130324255     0.0105613354     0.0001737566 24298.6113847114
   -0.9877551020     1.4141440401    81.0244851196    81.6753652896     0.0113600020     0.0001721160 24302.2548231212
   -0.9857142857     1.4015635991    80.3036789465    80.9940466110     0.0120491888     0.0001704971 24305.8348529635
   -0.9836734694     1.3898479862    79.6324237728    80.3572277855     0.0126502165     0.0001688998 24309.3528976309
   -0.9816326531     1.3788387766    79.0016425268    79.7567091305     0.0131783983     0.0001673252 24312.8103600096
   -0.9795918367     1.3684206412    78.4047273409    79.1865176812     0.0136448155     0.0001657712 24316.2085705112
   -0.9775510204     1.3585065303    77.8366906282    78.6421751556     0.0140583571     0.0001642392 24319.5488580701
   -0.9755102041     1.3490288258    77.2936581616    78.1202009753     0.0144258935     0.0001627284 24322.8325424284
   -0.9734693878     1.3399337634    76.7725494708    77.6178366098     0.0147530437     0.0001612387 24326.0608989335
   -0.9714285714     1.3311777582    76.2708673246    77.1328527446     0.0150444837     0.0001597700 24329.2351725989
   -0.9693877551     1.3227248956    75.7865539757    76.6634163691     0.0153041359     0.0001583222 24332.3566006329
   -0.9673469388     1.3145451659    75.3178899826    76.2079903476     0.0155351820     0.0001568942 24335.4264781108
   -0.9653061224     1.3066131882    74.8634211408    75.7639252797     0.0157167622     0.0001553449 24338.4448897544
   -0.9632653061     1.2989072697    74.4219045316    75.3289933914     0.0158316872     0.0001535658 24341.4037285453
   -0.9612244898     1.2914086960    73.9922679079    74.9056725878     0.0159419191     0.0001519122 24344.3039011465
   -0.9591836735     1.2841011890    73.5735785965    74.4930839043     0.0160483951     0.0001503730 24347.1498175607
   -0.9571428571     1.2769704845    73.1650193268    74.0903954417     0.0161508600     0.0001489325 24349.9453363123
   -0.9551020408     1.2700040004    72.7658691871    73.6968940075     0.0162494485     0.0001475798 24352.6938390183
   -0.9530612245     1.2631905710    72.3754884407    73.3119533818     0.0163443966     0.0001463058 24355.3983339455
   -0.9510204082     1.2565202341    71.9933062850    72.9350177149     0.0164359651     0.0001451032 24358.0614776489
   -0.9489795918     1.2499840563    71.6188108859    72.5655849861     0.0165243253     0.0001439654 24360.6856669453
   -0.9469387755     1.2435739909    71.2515411916    72.2031947514     0.0166094880     0.0001428856 24363.2730377365
   -0.9448979592     1.2372827589    70.8910801509    71.8474381224     0.0166915954     0.0001418587 24365.8255146387
   -0.9428571429     1.2311037506    70.5370490537    71.4979436540     0.0167707745     0.0001408803 24368.3448826706
   -0.9408163265     1.2250309424    70.1891027733    71.1543727565     0.0168471394     0.0001399462 24370.8327494525
   -0.9387755102     1.2190588266    69.8469257429    70.8164186526     0.0169208433     0.0001390533 24373.2905331855
   -0.9367346939     1.2131823517    69.5102285299    70.4838007484     0.0169920407     0.0001381985 24375.7195516178
   -0.9346938776     1.2073968710    69.1787449051    70.1562528743     0.0170607325     0.0001373787 24378.1210664592
   -0.9326530612     1.2016980990    68.8522293213    69.8335339170     0.0171269962     0.0001365911 24380.4962085217
   -0.9306122449     1.1960820730    68.5304547326    69.5154210055     0.0171909045     0.0001358335 24382.8459983812
   -0.9285714286     1.1905451201    68.2132107017    69.2017076546     0.0172525265     0.0001351038 24385.1713975476
   -0.9265306122     1.1850838286    67.9003017483    68.8922155199     0.0173121612     0.0001344012 24387.4733201790
   -0.9244897959     1.1796950225    67.5915459031    68.5867553393     0.0173696814     0.0001337231 24389.7525893846
   -0.9224489796     1.1743757395    67.2867734365    68.2851583555     0.0174251040     0.0001330676 24392.0099963278
   -0.9204081633     1.1691232113    66.9858257369    67.9872769790     0.0174786215     0.0001324341 24394.2462685516
   -0.9183673469     1.1639348463    66.6885543185    67.6929681960     0.0175303292     0.0001318213 24396.4620804154
   -0.9163265306     1.1588082142    66.3948199388    67.4020852090     0.0175800954     0.0001312272 24398.6580826647
   -0.9142857143     1.1537410325    66.1044918138    67.1145124182     0.0176281851     0.0001306517 24400.8348496883
   -0.9122448980     1.1487311539    65.8174469161    66.8301239384     0.0176745483     0.0001300934 24402.9929594298
   -0.9102040816     1.1437765557    65.5335693460    66.5488028191     0.0177191668     0.0001295510 24405.1329642607
   -0.9081632653     1.1388753294    65.2527497676    66.2704552125     0.0177623108     0.0001290246 24407.2553581697
   -0.9061224490     1.1340256726    64.9748848997    65.9949631503     0.0178037241     0.0001285122 24409.3606071719
   -0.9040816327     1.1292258803    64.6998770572    65.7222508153     0.0178437883     0.0001280145 24411.4491572793
   -0.9020408163     1.1244743380    64.4276337361    65.4522091417     0.0178822143     0.0001275294 24413.5214429014
   -0.9000000000     1.1197695150    64.1580672368    65.1847695702     0.0179193362     0.0001270575 24415.5778689023
   -0.8979591837     1.1151099586    63.8910943224    64.9198351166     0.0179549140     0.0001265970 24417.6188137855
   -0.8959183673     1.1104942885    63.6266359071    64.6573451326     0.0179892696     0.0001261487 24419.6446457872
   -0.8938775510     1.1059211919    63.3646167727    64.3972095016     0.0180221430     0.0001257107 24421.6557159323
   -0.8918367347     1.1013894190    63.1049653087    64.1393758937     0.0180538705     0.0001252839 24423.6523557808
   -0.8897959184     1.0968977787    62.8476132749    63.8837627613     0.0180842201     0.0001248666 24425.6348787592
   -0.8877551020     1.0924451350    62.5924955840    63.6303165594     0.0181133931     0.0001244593 24427.6035831005
   -0.8857142857     1.0880304035    62.3395501007    63.3789728225     0.0181413488     0.0001240611 24429.5587588591
   -0.8836734694     1.0836525480    62.0887174586    63.1296710844     0.0181680681     0.0001236716 24431.5006842918
   -0.8816326531     1.0793105778    61.8399408902    62.8823658249     0.0181937473     0.0001232910 24433.4296252128
   -0.8795918367     1.0750035447    61.5931660703    62.6369929903     0.0182182166     0.0001229183 24435.3458357402
   -0.8775510204     1.0707305406    61.3483409720    62.3935085694     0.0182416158     0.0001225536 24437.2495581513
   -0.8755102041     1.0664906953    61.1054157324    62.1518643729     0.0182639742     0.0001221966 24439.1410231423
   -0.8734693878     1.0622831742    60.8643425293    61.9120081908     0.0182852153     0.0001218465 24441.0204553858
   -0.8714285714     1.0581071761    60.6250754655    61.6739021147     0.0183054783     0.0001215038 24442.8880705429
   -0.8693877551     1.0539619319    60.3875704629    61.4375013781     0.0183247514     0.0001211679 24444.7440754687
   -0.8673469388     1.0498467020    60.1517851626    61.2027609001     0.0183429870     0.0001208383 24446.5886686906
   -0.8653061224     1.0457607758    59.9176788330    60.9696452624     0.0183602778     0.0001205151 24448.4220408545
   -0.8632653061     1.0417034691    59.6852122830    60.7381179195     0.0183766701     0.0001201983 24450.2443753045
   -0.8612244898     1.0376741234    59.4543477825    60.5081371733     0.0183920945     0.0001198871 24452.0558522771
   -0.8591836735     1.0336721045    59.2250489867    60.2796680499     0.0184065750     0.0001195815 24453.8566443489
   -0.8571428571     1.0296968008    58.9972808661    60.0526835545     0.0184202518     0.0001192818 24455.6469167984
   -0.8551020408     1.0257476230    58.7710096411    59.8271448164     0.0184330362     0.0001189874 24457.4268293117
   -0.8530612245     1.0218240020    58.5462027200    59.6030196493     0.0184449350     0.0001186980 24459.1965362482
   -0.8510204082     1.0179253889    58.3228286418    59.3802777493     0.0184559686     0.0001184135 24460.9561868895
   -0.8489795918     1.0140512533    58.1008570218    59.1588956281     0.0184662573     0.0001181342 24462.7059256734
   -0.8469387755     1.0102010827    57.8802585008    58.9388392723     0.0184757199     0.0001178596 24464.4458924145
   -0.8448979592     1.0063743820    57.6610046973    58.7200809081     0.0184843669     0.0001175894 24466.1762229839
   -0.8428571429     1.0025706719    57.4430681625    58.5025940754     0.0184922157     0.0001173236 24467.8970491428
   -0.8408163265     0.9987894889    57.2264223382    58.2863550541     0.0184993157     0.0001170622 24469.6084973630
   -0.8387755102     0.9950303845    57.0110415164    58.0713401131     0.0185057016     0.0001168052 24471.3106903424
   -0.8367346939     0.9912929239    56.7969008020    57.8575219976     0.0185113320     0.0001165522 24473.0037472018
   -0.8346938776     0.9875766864    56.5839760772    57.6448774440     0.0185162219     0.0001163031 24474.6877836334
   -0.8326530612     0.9838812640    56.3722439680    57.4333839002     0.0185203856     0.0001160578 24476.3629120409
   -0.8306122449     0.9802062611    56.1616818123    57.2230194957     0.0185238371     0.0001158162 24478.0292416729
   -0.8285714286     0.9765512941    55.9522676300    57.0137665677     0.0185266515     0.0001155785 24479.6868787483
   -0.8265306122     0.9729159908    55.7439800947    56.8056009608     0.0185287795     0.0001153443 24481.3359265766
   -0.8244897959     0.9692999900    55.5367985066    56.5985024760     0.0185302299     0.0001151135 24482.9764856703
   -0.8224489796     0.9657029407    55.3307027670    56.3924517087     0.0185310149     0.0001148861 24484.6086538533
   -0.8204081633     0.9621245024    55.1256733545    56.1874298074     0.0185311460     0.0001146619 24486.2325263625
   -0.8183673469     0.9585643440    54.9216913014    55.9834184521     0.0185306345     0.0001144410 24487.8481959453
   -0.8163265306     0.9550221437    54.7187381727    55.7803999831     0.0185294941     0.0001142231 24489.4557522218
   -0.8142857143     0.9514975886    54.5167960447    55.5783593514     0.0185277749     0.0001140085 24491.0552811936
   -0.8122448980     0.9479903746    54.3158474857    55.3772771221     0.0185254419     0.0001137969 24492.6468682211
   -0.8102040816     0.9445002057    54.1158755372    55.1771369113     0.0185225052     0.0001135881 24494.2305965109
   -0.8081632653     0.9410267938    53.9168636960    54.9779227727     0.0185189744     0.0001133821 24495.8065471030
   -0.8061224490     0.9375698586    53.7187958976    54.7796191811     0.0185148591     0.0001131789 24497.3747989482
   -0.8040816327     0.9341291270    53.5216564995    54.5822110173     0.0185101682     0.0001129785 24498.9354289815
   -0.8020408163     0.9307043332    53.3254302661    54.3856835536     0.0185049108     0.0001127806 24500.4885121927
   -0.8000000000     0.9272952180    53.1301023542    54.1900224393     0.0184990953     0.0001125854 24502.0341216933
   -0.7979591837     0.9239015290    52.9356582985    53.9952136876     0.0184927301     0.0001123926 24503.5723287807
   -0.7959183673     0.9205230201    52.7420839987    53.8012436632     0.0184858234     0.0001122024 24505.1032029994
   -0.7938775510     0.9171594514    52.5493657065    53.6081001754     0.0184784024     0.0001120146 24506.6268121997
   -0.7918367347     0.9138105888    52.3574900132    53.4157692536     0.0184704572     0.0001118292 24508.1432225936
   -0.7897959184     0.9104762040    52.1664438387    53.2242380305     0.0184619915     0.0001116462 24509.6524988085
   -0.7877551020     0.9071560743    51.9762144194    53.0334941629     0.0184530126     0.0001114654 24511.1547039383
   -0.7857142857     0.9038499823    51.7867892983    52.8435256027     0.0184435278     0.0001112868 24512.6498997506
   -0.7836734694     0.9005577156    51.5981563144    52.6543205874     0.0184335440     0.0001111104 24514.1381471347
   -0.7816326531     0.8972790671    51.4103035930    52.4658676303     0.0184230679     0.0001109361 24515.6195052030
   -0.7795918367     0.8940138344    51.2232195364    52.2781555118     0.0184121062     0.0001107639 24517.0940317478
   -0.7775510204     0.8907618196    51.0368928148    52.0911732708     0.0184006652     0.0001105938 24518.5617833382
   -0.7755102041     0.8875228296    50.8513123577    51.9049101964     0.0183887513     0.0001104257 24520.0228153564
   -0.7734693878     0.8842966755    50.6664673458    51.7193558198     0.0183763705     0.0001102595 24521.4771820329
   -0.7714285714     0.8810831728    50.4823472028    51.5344999070     0.0183635289     0.0001100953 24522.9249364799
   -0.7693877551     0.8778821410    50.2989415880    51.3503324515     0.0183502323     0.0001099330 24524.3661307242
   -0.7673469388     0.8746934035    50.1162403889    51.1668436671     0.0183364863     0.0001097725 24525.8008157376
   -0.7653061224     0.8715167878    49.9342337142    50.9840239812     0.0183222966     0.0001096139 24527.2290414675
   -0.7632653061     0.8683521249    49.7529118872    50.8018640284     0.0183076686     0.0001094570 24528.6508568655
   -0.7612244898     0.8651992496    49.5722654391    50.6203546443     0.0182926075     0.0001093019 24530.0663099149
   -0.7591836735     0.8620580001    49.3922851027    50.4394868595     0.0182771186     0.0001091485 24531.4754476581
   -0.7571428571     0.8589282182    49.2129618067    50.2592518938     0.0182612070     0.0001089968 24532.8783162216
   -0.7551020408     0.8558097488    49.0342866700    50.0796411506     0.0182448775     0.0001088468 24534.2749608413
   -0.7530612245     0.8527024401    48.8562509955    49.9006462119     0.0182281352     0.0001086984 24535.6654258866
   -0.7510204082     0.8496061434    48.6788462656    49.7222588324     0.0182109847     0.0001085516 24537.0497548827
   -0.7489795918     0.8465207132    48.5020641364    49.5444709356     0.0181934308     0.0001084064 24538.4279893961
   -0.7469387755     0.8434460067    48.3258964330    49.3672746079     0.0181754779     0.0001082628 24539.8001701368
   -0.7448979592     0.8403818842    48.1503351447    49.1906620951     0.0181571306     0.0001081206 24541.1663380578
   -0.7428571429     0.8373282086    47.9753724206    49.0146257971     0.0181383932     0.0001079800 24542.5265333337
   -0.7408163265     0.8342848456    47.8010005647    48.8391582641     0.0181192700     0.0001078408 24543.8807953811
   -0.7387755102     0.8312516635    47.6272120320    48.6642521924     0.0180997653     0.0001077030 24545.2291628773
   -0.7367346939     0.8282285332    47.4539994242    48.4899004202     0.0180798831     0.0001075667 24546.5716737798
   -0.7346938776     0.8252153280    47.2813554856    48.3160959241     0.0180596276     0.0001074318 24547.9083653437
   -0.7326530612     0.8222119238    47.1092730996    48.1428318149     0.0180390026     0.0001072982 24549.2392741395
   -0.7306122449     0.8192181987    46.9377452847    47.9701013346     0.0180180121     0.0001071660 24550.5644360697
   -0.7285714286     0.8162340331    46.7667651908    47.7978978524     0.0179966600     0.0001070352 24551.8838863857
   -0.7265306122     0.8132593097    46.5963260961    47.6262148618     0.0179749499     0.0001069056 24553.1976597028
   -0.7244897959     0.8102939134    46.4264214035    47.4550459768     0.0179528856     0.0001067773 24554.5057900161
   -0.7224489796     0.8073377312    46.2570446372    47.2843849296     0.0179304706     0.0001066503 24555.8083107150
   -0.7204081633     0.8043906520    46.0881894401    47.1142261649     0.0179077191     0.0001065245 24557.1052545978
   -0.7183673469     0.8014525670    45.9198495701    46.9445632832     0.0178846282     0.0001064001 24558.3966538852
   -0.7163265306     0.7985233692    45.7520188977    46.7753901326     0.0178611975     0.0001062768 24559.6825402341
   -0.7142857143     0.7956029535    45.5846914028    46.6067008856     0.0178374305     0.0001061547 24560.9629447503
   -0.7122448980     0.7926912167    45.4178611722    46.4384898180     0.0178133303     0.0001060337 24562.2378980014
   -0.7102040816     0.7897880574    45.2515223968    46.2707513068     0.0177889003     0.0001059139 24563.5074302234
   -0.7081632653     0.7868933760    45.0856693690    46.1034798274     0.0177641437     0.0001057953 24564.7715713003
   -0.7061224490     0.7840070746    44.9202964804    45.9366699513     0.0177390635     0.0001056778 24566.0303502799
   -0.7040816327     0.7811290570    44.7553982192    45.7703163439     0.0177136629     0.0001055613 24567.2837957386
   -0.7020408163     0.7782592286    44.5909691678    45.6044137617     0.0176879449     0.0001054460 24568.5319357986
   -0.7000000000     0.7753974966    44.4270040008    45.4389570509     0.0176619126     0.0001053317 24569.7747981380
   -0.6979591837     0.7725437695    44.2634974825    45.2739411447     0.0176355688     0.0001052185 24571.0124100003
