shape model output for Neptune's 1-bar isobaric surface. models are described in Mankovich et al. 2026, PSJ.
the models summarized in this file assume the symmetric Voyager wind profile from Tollefson et al. (2018, Icarus 311) Table 1.
the distribution of models in this file comes from Markov chain Monte Carlo fits to the Voyager 2 radio occultation reported in Lindal (1992, AJ 103).
these solutions vary the polar radius to fit the Voyager 2 radio occultation to a Gaussian with standard deviation 5 km.
the wind fit polynomial coefficients are also allowed to vary within their Gaussian uncertainties following T18 Table 1.
this model has wind polynomial cofficients a, b, c:    -3.971686e+02    2.046580e-01   -8.437449e-06
mu=sin(phi), phi [radians], and lat_deg [degrees] refer to planetocentric latitude; lat_pg_deg gives planetographic latitude in degrees.
              mu          phi_rad          lat_deg       lat_pg_deg          psi_rad    omega_rad_s-1             r_km 
   -1.0000000000     1.5707963268    90.0000000000    90.0000000000     0.0000000000     0.0002283869 24221.9907854233
   -0.9998144712     1.5515331758    88.8963027451    89.0289371279     0.0023149067     0.0002281326 24222.5314534477
   -0.9996289425     1.5435536961    88.4391122386    88.6262690891     0.0032665033     0.0002278717 24223.0709611540
   -0.9994434137     1.5374305386    88.0882811581    88.3169927818     0.0039917709     0.0002276118 24223.6093101507
   -0.9992578850     1.5322682374    87.7925030866    88.0560123588     0.0045991044     0.0002273526 24224.1465050422
   -0.9990723562     1.5277199472    87.5319052508    87.8258651167     0.0051305675     0.0002270933 24224.6825492079
   -0.9988868275     1.5236077873    87.2962958471    87.6176030875     0.0056078693     0.0002268356 24225.2174451247
   -0.9987012987     1.5198260904    87.0796205724    87.4259009182     0.0060437322     0.0002265760 24225.7511946727
   -0.9985157699     1.5163060092    86.8779347757    87.2473036085     0.0064467023     0.0002263174 24226.2837993228
   -0.9983302412     1.5129997231    86.6884985354    87.0794059714     0.0068226218     0.0002260593 24226.8152619160
   -0.9981447124     1.5098724146    86.5093169626    86.9204577182     0.0071757599     0.0002258017 24227.3455879567
   -0.9979591837     1.5068978001    86.3388841007    86.7691383062     0.0075093525     0.0002255444 24227.8747780651
   -0.9959183673     1.4804147767    84.8215186329    85.4153519610     0.0103643468     0.0002227343 24233.6215485615
   -0.9938775510     1.4600831244    83.6566007642    84.3664173372     0.0123886363     0.0002199609 24239.2343981406
   -0.9918367347     1.4429339318    82.6740244067    83.4739789625     0.0139618409     0.0002172243 24244.7166131520
   -0.9897959184     1.4278174270    81.8079124837    82.6808555769     0.0152357312     0.0002145241 24250.0713529122
   -0.9877551020     1.4141440401    81.0244851196    81.9578753178     0.0162907322     0.0002118612 24255.3017572006
   -0.9857142857     1.4015635991    80.3036789465    81.2877807625     0.0171758169     0.0002092335 24260.4109168687
   -0.9836734694     1.3898479862    79.6324237728    80.6593945663     0.0179240217     0.0002066408 24265.4018564442
   -0.9816326531     1.3788387766    79.0016425268    80.0650116661     0.0185592926     0.0002040848 24270.2774968246
   -0.9795918367     1.3684206412    78.4047273409    79.4990154687     0.0190989308     0.0002015625 24275.0407426074
   -0.9775510204     1.3585065303    77.8366906282    78.9572259441     0.0195570306     0.0001990757 24279.6944491633
   -0.9755102041     1.3490288258    77.2936581616    78.4363921500     0.0199444706     0.0001966234 24284.2413775999
   -0.9734693878     1.3399337634    76.7725494708    77.9339466764     0.0202702052     0.0001942053 24288.6842643242
   -0.9714285714     1.3311777582    76.2708673246    77.4478216166     0.0205417275     0.0001918213 24293.0257747312
   -0.9693877551     1.3227248956    75.7865539757    76.9763205308     0.0207653437     0.0001894713 24297.2685120692
   -0.9673469388     1.3145451659    75.3178899826    76.5180150839     0.0209461345     0.0001871535 24301.4150155688
   -0.9653061224     1.3066131882    74.8634211408    76.0678075858     0.0210205089     0.0001845258 24305.4652500540
   -0.9632653061     1.2989072697    74.4219045316    75.6212246789     0.0209320854     0.0001813009 24309.3947974235
   -0.9612244898     1.2914086960    73.9922679079    75.1870611613     0.0208530762     0.0001783244 24313.2039907105
   -0.9591836735     1.2841011890    73.5735785965    74.7644014985     0.0207837804     0.0001755738 24316.9035164750
   -0.9571428571     1.2769704845    73.1650193268    74.3522948917     0.0207218677     0.0001730173 24320.5026526073
   -0.9551020408     1.2700040004    72.7658691871    73.9499552512     0.0206662004     0.0001706323 24324.0094912393
   -0.9530612245     1.2631905710    72.3754884407    73.5567024504     0.0206160736     0.0001684009 24327.4310293093
   -0.9510204082     1.2565202341    71.9933062850    73.1719374727     0.0205709949     0.0001663082 24330.7734632382
   -0.9489795918     1.2499840563    71.6188108859    72.7951154908     0.0205303884     0.0001643406 24334.0423105535
   -0.9469387755     1.2435739909    71.2515411916    72.4257274357     0.0204934160     0.0001624848 24337.2424341963
   -0.9448979592     1.2372827589    70.8910801509    72.0633315072     0.0204596458     0.0001607305 24340.3782436143
   -0.9428571429     1.2311037506    70.5370490537    71.7075267611     0.0204286898     0.0001590687 24343.4536361817
   -0.9408163265     1.2250309424    70.1891027733    71.3579481494     0.0204002003     0.0001574915 24346.4721856200
   -0.9387755102     1.2190588266    69.8469257429    71.0142687202     0.0203739785     0.0001559922 24349.4370844101
   -0.9367346939     1.2131823517    69.5102285299    70.6761906030     0.0203498771     0.0001545652 24352.3512252639
   -0.9346938776     1.2073968710    69.1787449051    70.3434219511     0.0203274492     0.0001532038 24355.2172999329
   -0.9326530612     1.2016980990    68.8522293213    70.0157038897     0.0203064620     0.0001519030 24358.0377281050
   -0.9306122449     1.1960820730    68.5304547326    69.6927975207     0.0202867087     0.0001506581 24360.8147294066
   -0.9285714286     1.1905451201    68.2132107017    69.3744818695     0.0202680054     0.0001494651 24363.5503540273
   -0.9265306122     1.1850838286    67.9003017483    69.0605813607     0.0202506995     0.0001483226 24366.2465079126
   -0.9244897959     1.1796950225    67.5915459031    68.7508815602     0.0202342244     0.0001472252 24368.9049479098
   -0.9224489796     1.1743757395    67.2867734365    68.4451999582     0.0202183569     0.0001461695 24371.5272665542
   -0.9204081633     1.1691232113    66.9858257369    68.1433880729     0.0202032741     0.0001451540 24374.1149870175
   -0.9183673469     1.1639348463    66.6885543185    67.8452963049     0.0201889563     0.0001441765 24376.6694857225
   -0.9163265306     1.1588082142    66.3948199388    67.5507573511     0.0201749138     0.0001432331 24379.1920758174
   -0.9142857143     1.1537410325    66.1044918138    67.2596619389     0.0201615221     0.0001423235 24381.6839886150
   -0.9122448980     1.1487311539    65.8174469161    66.9718706294     0.0201484948     0.0001414450 24384.1463666134
   -0.9102040816     1.1437765557    65.5335693460    66.6872558592     0.0201356282     0.0001405951 24386.5802484666
   -0.9081632653     1.1388753294    65.2527497676    66.4057319999     0.0201233362     0.0001397742 24388.9866342491
   -0.9061224490     1.1340256726    64.9748848997    66.1271566652     0.0201109362     0.0001389782 24391.3664873344
   -0.9040816327     1.1292258803    64.6998770572    65.8514700791     0.0200990899     0.0001382086 24393.7206735650
   -0.9020408163     1.1244743380    64.4276337361    65.5785379899     0.0200870686     0.0001374612 24396.0500337948
   -0.9000000000     1.1197695150    64.1580672368    65.3083055225     0.0200754453     0.0001367374 24398.3553588724
   -0.8979591837     1.1151099586    63.8910943224    65.0406546837     0.0200636133     0.0001360338 24400.6374044329
   -0.8959183673     1.1104942885    63.6266359071    64.7755381949     0.0200521277     0.0001353517 24402.8968553182
   -0.8938775510     1.1059211919    63.3646167727    64.5128447153     0.0200403582     0.0001346876 24405.1343595007
   -0.8918367347     1.1013894190    63.1049653087    64.2525365051     0.0200288958     0.0001340432 24407.3505757110
   -0.8897959184     1.0968977787    62.8476132749    63.9945132917     0.0200171815     0.0001334154 24409.5460862677
   -0.8877551020     1.0924451350    62.5924955840    63.7387285241     0.0200055388     0.0001328050 24411.7214565482
   -0.8857142857     1.0880304035    62.3395501007    63.4851108574     0.0199938070     0.0001322105 24413.8772302930
   -0.8836734694     1.0836525480    62.0887174586    63.2335944886     0.0199818737     0.0001316308 24416.0139217113
   -0.8816326531     1.0793105778    61.8399408902    62.9841409854     0.0199700590     0.0001310668 24418.1320271792
   -0.8795918367     1.0750035447    61.5931660703    62.7366728666     0.0199579586     0.0001305161 24420.2319974136
   -0.8775510204     1.0707305406    61.3483409720    62.4911503342     0.0199457861     0.0001299792 24422.3142877315
   -0.8755102041     1.0664906953    61.1054157324    62.2475233352     0.0199335381     0.0001294555 24424.3793436327
   -0.8734693878     1.0622831742    60.8643425293    62.0057321732     0.0199210073     0.0001289436 24426.4275493091
   -0.8714285714     1.0581071761    60.6250754655    61.7657434259     0.0199084116     0.0001284442 24428.4592863754
   -0.8693877551     1.0539619319    60.3875704629    61.5275086704     0.0198956750     0.0001279564 24430.4749471554
   -0.8673469388     1.0498467020    60.1517851626    61.2909774555     0.0198826563     0.0001274792 24432.4748900043
   -0.8653061224     1.0457607758    59.9176788330    61.0561166142     0.0198694876     0.0001270129 24434.4594606654
   -0.8632653061     1.0417034691    59.6852122830    60.8228894279     0.0198562120     0.0001265571 24436.4289777670
   -0.8612244898     1.0376741234    59.4543477825    60.5912480985     0.0198426538     0.0001261110 24438.3837481797
   -0.8591836735     1.0336721045    59.2250489867    60.3611565857     0.0198288183     0.0001256740 24440.3240728234
   -0.8571428571     1.0296968008    58.9972808661    60.1325928522     0.0198149322     0.0001252470 24442.2502428534
   -0.8551020408     1.0257476230    58.7710096411    59.9055112939     0.0198007892     0.0001248287 24444.1625531471
   -0.8530612245     1.0218240020    58.5462027200    59.6798780493     0.0197863671     0.0001244187 24446.0612680898
   -0.8510204082     1.0179253889    58.3228286418    59.4556618892     0.0197716700     0.0001240168 24447.9466510207
   -0.8489795918     1.0140512533    58.1008570218    59.2328434248     0.0197568898     0.0001236236 24449.8189469555
   -0.8469387755     1.0102010827    57.8802585008    59.0113827678     0.0197418427     0.0001232380 24451.6783871228
   -0.8448979592     1.0063743820    57.6610046973    58.7912509483     0.0197265184     0.0001228597 24453.5252080911
   -0.8428571429     1.0025706719    57.4430681625    58.5724207014     0.0197109202     0.0001224886 24455.3596363661
   -0.8408163265     0.9987894889    57.2264223382    58.3548691061     0.0196951115     0.0001221246 24457.1818880108
   -0.8387755102     0.9950303845    57.0110415164    58.1385725254     0.0196791285     0.0001217677 24458.9921697437
   -0.8367346939     0.9912929239    56.7969008020    57.9235002474     0.0196628697     0.0001214174 24460.7906822487
   -0.8346938776     0.9875766864    56.5839760772    57.7096283072     0.0196463376     0.0001210733 24462.5776202112
   -0.8326530612     0.9838812640    56.3722439680    57.4969334714     0.0196295349     0.0001207354 24464.3531720965
   -0.8306122449     0.9802062611    56.1616818123    57.2853932078     0.0196124637     0.0001204034 24466.1175204164
   -0.8285714286     0.9765512941    55.9522676300    57.0749920517     0.0195952378     0.0001200778 24467.8708419819
   -0.8265306122     0.9729159908    55.7439800947    56.8657023360     0.0195777464     0.0001197577 24469.6133081401
   -0.8244897959     0.9692999900    55.5367985066    56.6575030910     0.0195599849     0.0001194432 24471.3450850003
   -0.8224489796     0.9657029407    55.3307027670    56.4503743332     0.0195419554     0.0001191339 24473.0663314843
   -0.8204081633     0.9621245024    55.1256733545    56.2442966486     0.0195236596     0.0001188299 24474.7771992220
   -0.8183673469     0.9585643440    54.9216913014    56.0392511710     0.0195050993     0.0001185309 24476.4778403189
   -0.8163265306     0.9550221437    54.7187381727    55.8352198238     0.0194862808     0.0001182368 24478.1684021150
   -0.8142857143     0.9514975886    54.5167960447    55.6321887596     0.0194672753     0.0001179478 24479.8490271458
   -0.8122448980     0.9479903746    54.3158474857    55.4301360551     0.0194480044     0.0001176635 24481.5198533335
   -0.8102040816     0.9445002057    54.1158755372    55.2290448471     0.0194284696     0.0001173837 24483.1810141679
   -0.8081632653     0.9410267938    53.9168636960    55.0288987228     0.0194086726     0.0001171084 24484.8326388788
   -0.8061224490     0.9375698586    53.7187958976    54.8296817040     0.0193886149     0.0001168373 24486.4748526000
   -0.8040816327     0.9341291270    53.5216564995    54.6313782307     0.0193682980     0.0001165705 24488.1077765294
   -0.8020408163     0.9307043332    53.3254302661    54.4339731464     0.0193477232     0.0001163078 24489.7315290369
   -0.8000000000     0.9272952180    53.1301023542    54.2374516839     0.0193268918     0.0001160490 24491.3462262828
   -0.7979591837     0.9239015290    52.9356582985    54.0417994512     0.0193058051     0.0001157942 24492.9519811352
   -0.7959183673     0.9205230201    52.7420839987    53.8470024186     0.0192844644     0.0001155433 24494.5489033550
   -0.7938775510     0.9171594514    52.5493657065    53.6530487900     0.0192629037     0.0001152962 24496.1370997051
   -0.7918367347     0.9138105888    52.3574900132    53.4599235064     0.0192410942     0.0001150527 24497.7166740551
   -0.7897959184     0.9104762040    52.1664438387    53.2676131877     0.0192190308     0.0001148128 24499.2877274819
   -0.7877551020     0.9071560743    51.9762144194    53.0761051424     0.0191967145     0.0001145763 24500.8503583650
   -0.7857142857     0.9038499823    51.7867892983    52.8853869839     0.0191741468     0.0001143433 24502.4046624782
   -0.7836734694     0.9005577156    51.5981563144    52.6954466197     0.0191513287     0.0001141136 24503.9507330767
   -0.7816326531     0.8972790671    51.4103035930    52.5062722423     0.0191282614     0.0001138871 24505.4886609815
   -0.7795918367     0.8940138344    51.2232195364    52.3178523196     0.0191049462     0.0001136637 24507.0185346593
   -0.7775510204     0.8907618196    51.0368928148    52.1301755865     0.0190813840     0.0001134435 24508.5404403394
   -0.7755102041     0.8875228296    50.8513123577    51.9432310360     0.0190575761     0.0001132263 24510.0544638680
   -0.7734693878     0.8842966755    50.6664673458    51.7570079112     0.0190335235     0.0001130121 24511.5606879420
   -0.7714285714     0.8810831728    50.4823472028    51.5714956975     0.0190092273     0.0001128008 24513.0591923343
   -0.7693877551     0.8778821410    50.2989415880    51.3866841149     0.0189846885     0.0001125923 24514.5500550913
   -0.7673469388     0.8746934035    50.1162403889    51.2025631111     0.0189599082     0.0001123866 24516.0333525838
   -0.7653061224     0.8715167878    49.9342337142    51.0191228542     0.0189348875     0.0001121836 24517.5091595576
   -0.7632653061     0.8683521249    49.7529118872    50.8363537265     0.0189096273     0.0001119833 24518.9775491811
   -0.7612244898     0.8651992496    49.5722654391    50.6542463176     0.0188841288     0.0001117856 24520.4385930916
   -0.7591836735     0.8620580001    49.3922851027    50.4727914185     0.0188583928     0.0001115905 24521.8923614393
   -0.7571428571     0.8589282182    49.2129618067    50.2919800156     0.0188324204     0.0001113978 24523.3389229303
   -0.7551020408     0.8558097488    49.0342866700    50.1118032850     0.0188062127     0.0001112077 24524.7783448674
   -0.7530612245     0.8527024401    48.8562509955    49.9322525869     0.0187797705     0.0001110199 24526.2106931902
   -0.7510204082     0.8496061434    48.6788462656    49.7533194603     0.0187530950     0.0001108345 24527.6360325126
   -0.7489795918     0.8465207132    48.5020641364    49.5749956179     0.0187261870     0.0001106514 24529.0544250254
   -0.7469387755     0.8434460067    48.3258964330    49.3972729413     0.0186990476     0.0001104706 24530.4659302087
   -0.7448979592     0.8403818842    48.1503351447    49.2201434759     0.0186716777     0.0001102920 24531.8706079391
   -0.7428571429     0.8373282086    47.9753724206    49.0435994269     0.0186440784     0.0001101156 24533.2685168318
   -0.7408163265     0.8342848456    47.8010005647    48.8676331542     0.0186162506     0.0001099413 24534.6597142319
   -0.7387755102     0.8312516635    47.6272120320    48.6922371689     0.0185881953     0.0001097691 24536.0442562497
   -0.7367346939     0.8282285332    47.4539994242    48.5174041282     0.0185599134     0.0001095990 24537.4221977937
   -0.7346938776     0.8252153280    47.2813554856    48.3431268326     0.0185314059     0.0001094309 24538.7935926028
   -0.7326530612     0.8222119238    47.1092730996    48.1693982208     0.0185026738     0.0001092648 24540.1584932777
   -0.7306122449     0.8192181987    46.9377452847    47.9962113670     0.0184737182     0.0001091006 24541.5169513110
   -0.7285714286     0.8162340331    46.7667651908    47.8235594770     0.0184445398     0.0001089383 24542.8690171158
   -0.7265306122     0.8132593097    46.5963260961    47.6514358844     0.0184151398     0.0001087779 24544.2147400543
   -0.7244897959     0.8102939134    46.4264214035    47.4798340476     0.0183855190     0.0001086194 24545.5541684647
   -0.7224489796     0.8073377312    46.2570446372    47.3087475465     0.0183556785     0.0001084627 24546.8873496871
   -0.7204081633     0.8043906520    46.0881894401    47.1381710003     0.0183256353     0.0001083078 24548.2143306618
   -0.7183673469     0.8014525670    45.9198495701    46.9680976655     0.0182953806     0.0001081547 24549.5351578890
   -0.7163265306     0.7985233692    45.7520188977    46.7985211298     0.0182649096     0.0001080033 24550.8498760331
   -0.7142857143     0.7956029535    45.5846914028    46.6294354268     0.0182342231     0.0001078536 24552.1585289050
   -0.7122448980     0.7926912167    45.4178611722    46.4608346970     0.0182033220     0.0001077055 24553.4611595021
   -0.7102040816     0.7897880574    45.2515223968    46.2927131851     0.0181722074     0.0001075591 24554.7578100275
   -0.7081632653     0.7868933760    45.0856693690    46.1250652372     0.0181408801     0.0001074142 24556.0485219094
   -0.7061224490     0.7840070746    44.9202964804    45.9578852990     0.0181093412     0.0001072710 24557.3333358193
   -0.7040816327     0.7811290570    44.7553982192    45.7911679125     0.0180775914     0.0001071293 24558.6122916893
   -0.7020408163     0.7782592286    44.5909691678    45.6249077142     0.0180456319     0.0001069891 24559.8854287300
   -0.7000000000     0.7753974966    44.4270040008    45.4590994329     0.0180134635     0.0001068504 24561.1527854467
   -0.6979591837     0.7725437695    44.2634974825    45.2937378869     0.0179810871     0.0001067132 24562.4143996556
