shape model output for Neptune's 1-bar isobaric surface. models are described in Mankovich et al. 2026, PSJ.
the models summarized in this file assume the symmetric Voyager wind profile from Tollefson et al. (2018, Icarus 311) Table 1.
the distribution of models in this file comes from Markov chain Monte Carlo fits to the Voyager 2 radio occultation reported in Lindal (1992, AJ 103).
these solutions vary the polar radius to fit the Voyager 2 radio occultation to a Gaussian with standard deviation 5 km.
the wind fit polynomial coefficients are also allowed to vary within their Gaussian uncertainties following T18 Table 1.
this model has wind polynomial cofficients a, b, c:    -3.983672e+02    2.183733e-01   -1.201394e-05
mu=sin(phi), phi [radians], and lat_deg [degrees] refer to planetocentric latitude; lat_pg_deg gives planetographic latitude in degrees.
              mu          phi_rad          lat_deg       lat_pg_deg          psi_rad    omega_rad_s-1             r_km 
   -1.0000000000     1.5707963268    90.0000000000    90.0000000000     0.0000000000     0.0002192149 24228.8592126132
   -0.9998144712     1.5515331758    88.8963027451    89.0195329723     0.0021507732     0.0002189801 24229.3616653172
   -0.9996289425     1.5435536961    88.4391122386    88.6130141475     0.0030351609     0.0002187391 24229.8630805535
   -0.9994434137     1.5374305386    88.0882811581    88.3008131436     0.0037093829     0.0002184990 24230.3634612597
   -0.9992578850     1.5322682374    87.7925030866    88.0373921514     0.0042741205     0.0002182596 24230.8628121071
   -0.9990723562     1.5277199472    87.5319052508    87.8051168065     0.0047684412     0.0002180201 24231.3611364126
   -0.9988868275     1.5236077873    87.2962958471    87.5949502392     0.0052125025     0.0002177822 24231.8584365821
   -0.9987012987     1.5198260904    87.0796205724    87.4015154130     0.0056181248     0.0002175424 24232.3547143902
   -0.9985157699     1.5163060092    86.8779347757    87.2213220038     0.0059932377     0.0002173035 24232.8499700359
   -0.9983302412     1.5129997231    86.6884985354    87.0519408977     0.0063432659     0.0002170652 24233.3442047328
   -0.9981447124     1.5098724146    86.5093169626    86.8916042882     0.0066721725     0.0002168272 24233.8374208518
   -0.9979591837     1.5068978001    86.3388841007    86.7389783250     0.0069829615     0.0002165896 24234.3296210048
   -0.9959183673     1.4804147767    84.8215186329    85.3742582443     0.0096471261     0.0002139941 24239.6774641472
   -0.9938775510     1.4600831244    83.6566007642    84.3179435735     0.0115426095     0.0002114327 24244.9056710269
   -0.9918367347     1.4429339318    82.6740244067    83.4200878642     0.0130212638     0.0002089051 24250.0171137088
   -0.9897959184     1.4278174270    81.8079124837    82.6228638347     0.0142235843     0.0002064113 24255.0146095102
   -0.9877551020     1.4141440401    81.0244851196    81.8967519124     0.0152239275     0.0002039518 24259.9009279977
   -0.9857142857     1.4015635991    80.3036789465    81.2242805091     0.0160675284     0.0002015248 24264.6787708964
   -0.9836734694     1.3898479862    79.6324237728    80.5941255537     0.0167848625     0.0001991302 24269.3507823930
   -0.9816326531     1.3788387766    79.0016425268    79.9984737393     0.0173979867     0.0001967695 24273.9195778761
   -0.9795918367     1.3684206412    78.4047273409    79.4316304662     0.0179228406     0.0001944399 24278.3877214760
   -0.9775510204     1.3585065303    77.8366906282    78.8893503020     0.0183723772     0.0001921431 24282.7576908864
   -0.9755102041     1.3490288258    77.2936581616    78.3683319418     0.0187565958     0.0001898782 24287.0319404805
   -0.9734693878     1.3399337634    76.7725494708    77.8659660191     0.0190837189     0.0001876448 24291.2128432449
   -0.9714285714     1.3311777582    76.2708673246    77.3801491761     0.0193606206     0.0001854430 24295.3027660751
   -0.9693877551     1.3227248956    75.7865539757    76.9091549653     0.0195930835     0.0001832725 24299.3040304109
   -0.9673469388     1.3145451659    75.3178899826    76.4515311410     0.0197857708     0.0001811318 24303.2188851893
   -0.9653061224     1.3066131882    74.8634211408    76.0032138427     0.0198931354     0.0001787629 24307.0477323234
   -0.9632653061     1.2989072697    74.4219045316    75.5607603696     0.0198767841     0.0001759607 24310.7730318837
   -0.9612244898     1.2914086960    73.9922679079    75.1304067785     0.0198642706     0.0001733683 24314.3960239776
   -0.9591836735     1.2841011890    73.5735785965    74.7112568791     0.0198562319     0.0001709669 24317.9254261805
   -0.9571428571     1.2769704845    73.1650193268    74.3024047124     0.0198511198     0.0001687298 24321.3687653120
   -0.9551020408     1.2700040004    72.7658691871    73.9030930479     0.0198483007     0.0001666381 24324.7325999564
   -0.9530612245     1.2631905710    72.3754884407    73.5126636987     0.0198474524     0.0001646768 24328.0227229422
   -0.9510204082     1.2565202341    71.9933062850    73.1305354926     0.0198483940     0.0001628333 24331.2442190146
   -0.9489795918     1.2499840563    71.6188108859    72.7561807799     0.0198508495     0.0001610963 24334.4016190927
   -0.9469387755     1.2435739909    71.2515411916    72.3891090085     0.0198543039     0.0001594545 24337.4989065734
   -0.9448979592     1.2372827589    70.8910801509    72.0288915053     0.0198585544     0.0001578994 24340.5397630592
   -0.9428571429     1.2311037506    70.5370490537    71.6751390304     0.0198634173     0.0001564233 24343.5274346462
   -0.9408163265     1.2250309424    70.1891027733    71.3274969861     0.0198687272     0.0001550195 24346.4648695308
   -0.9387755102     1.2190588266    69.8469257429    70.9856466655     0.0198744294     0.0001536824 24349.3547660584
   -0.9367346939     1.2131823517    69.5102285299    70.6492973319     0.0198805010     0.0001524073 24352.1995602763
   -0.9346938776     1.2073968710    69.1787449051    70.3181666704     0.0198866614     0.0001511885 24355.0014819318
   -0.9326530612     1.2016980990    68.8522293213    69.9920027075     0.0198927983     0.0001500217 24357.7625579447
   -0.9306122449     1.1960820730    68.5304547326    69.6705727627     0.0198988135     0.0001489031 24360.4846813070
   -0.9285714286     1.1905451201    68.2132107017    69.3536614690     0.0199046208     0.0001478292 24363.1695746557
   -0.9265306122     1.1850838286    67.9003017483    69.0410935025     0.0199105722     0.0001467987 24365.8188780410
   -0.9244897959     1.1796950225    67.5915459031    68.7326630858     0.0199162520     0.0001458073 24368.4340523368
   -0.9224489796     1.1743757395    67.2867734365    68.4281927742     0.0199215256     0.0001448519 24371.0164838753
   -0.9204081633     1.1691232113    66.9858257369    68.1275351833     0.0199265889     0.0001439312 24373.5674345088
   -0.9183673469     1.1639348463    66.6885543185    67.8305434847     0.0199314710     0.0001430436 24376.0881141643
   -0.9163265306     1.1588082142    66.3948199388    67.5370572324     0.0199358016     0.0001421854 24378.5796282163
   -0.9142857143     1.1537410325    66.1044918138    67.2469659207     0.0199399348     0.0001413567 24381.0430324443
   -0.9122448980     1.1487311539    65.8174469161    66.9601347704     0.0199436654     0.0001405549 24383.4792847307
   -0.9102040816     1.1437765557    65.5335693460    66.6764399304     0.0199468546     0.0001397780 24385.8893030996
   -0.9081632653     1.1388753294    65.2527497676    66.3957938815     0.0199498833     0.0001390265 24388.2739736916
   -0.9061224490     1.1340256726    64.9748848997    66.1180619333     0.0199522032     0.0001382965 24390.6341231361
   -0.9040816327     1.1292258803    64.6998770572    65.8431800576     0.0199544017     0.0001375897 24392.9704904512
   -0.9020408163     1.1244743380    64.4276337361    65.5710218184     0.0199558867     0.0001369023 24395.2837908265
   -0.9000000000     1.1197695150    64.1580672368    65.3015287488     0.0199571683     0.0001362356 24397.5747153964
   -0.8979591837     1.1151099586    63.8910943224    65.0345893552     0.0199577533     0.0001355864 24399.8439260373
   -0.8959183673     1.1104942885    63.6266359071    64.7701528384     0.0199581355     0.0001349562 24402.0920238280
   -0.8938775510     1.1059211919    63.3646167727    64.5081143352     0.0199577975     0.0001343418 24404.3195903090
   -0.8918367347     1.1013894190    63.1049653087    64.2484322179     0.0199572625     0.0001337447 24406.5271827216
   -0.8897959184     1.0968977787    62.8476132749    63.9910118981     0.0199560706     0.0001331622 24408.7153319245
   -0.8877551020     1.0924451350    62.5924955840    63.7358051034     0.0199545155     0.0001325950 24410.8845308403
   -0.8857142857     1.0880304035    62.3395501007    63.4827427223     0.0199524752     0.0001320418 24413.0352559645
   -0.8836734694     1.0836525480    62.0887174586    63.2317607206     0.0199498684     0.0001315017 24415.1679609634
   -0.8816326531     1.0793105778    61.8399408902    62.9828188992     0.0199469842     0.0001309754 24417.2830736193
   -0.8795918367     1.0750035447    61.5931660703    62.7358438022     0.0199434887     0.0001304610 24419.3810023530
   -0.8775510204     1.0707305406    61.3483409720    62.4907946593     0.0199395784     0.0001299587 24421.4621503999
   -0.8755102041     1.0664906953    61.1054157324    62.2476221481     0.0199352627     0.0001294681 24423.5268948133
   -0.8734693878     1.0622831742    60.8643425293    62.0062688628     0.0199303743     0.0001289881 24425.5755979034
   -0.8714285714     1.0581071761    60.6250754655    61.7667003172     0.0199251125     0.0001285190 24427.6086092023
   -0.8693877551     1.0539619319    60.3875704629    61.5288692847     0.0199194222     0.0001280603 24429.6262619337
   -0.8673469388     1.0498467020    60.1517851626    61.2927269683     0.0199131911     0.0001276111 24431.6288699822
   -0.8653061224     1.0457607758    59.9176788330    61.0582397401     0.0199065431     0.0001271715 24433.6167405704
   -0.8632653061     1.0417034691    59.6852122830    60.8253710881     0.0198995251     0.0001267413 24435.5901683374
   -0.8612244898     1.0376741234    59.4543477825    60.5940750350     0.0198919931     0.0001263197 24437.5494357663
   -0.8591836735     1.0336721045    59.2250489867    60.3643159682     0.0198839599     0.0001259064 24439.4948138243
   -0.8571428571     1.0296968008    58.9972808661    60.1360706398     0.0198756310     0.0001255018 24441.4265625613
   -0.8551020408     1.0257476230    58.7710096411    59.9092954046     0.0198668344     0.0001251051 24443.3449319162
   -0.8530612245     1.0218240020    58.5462027200    59.6839569754     0.0198575578     0.0001247159 24445.2501663411
   -0.8510204082     1.0179253889    58.3228286418    59.4600244879     0.0198478118     0.0001243340 24447.1425014364
   -0.8489795918     1.0140512533    58.1008570218    59.2374775716     0.0198377709     0.0001239597 24449.0221636028
   -0.8469387755     1.0102010827    57.8802585008    59.0162780234     0.0198272810     0.0001235924 24450.8893712307
   -0.8448979592     1.0063743820    57.6610046973    58.7963972948     0.0198163391     0.0001232316 24452.7443350754
   -0.8428571429     1.0025706719    57.4430681625    58.5778084337     0.0198049539     0.0001228772 24454.5872586101
   -0.8408163265     0.9987894889    57.2264223382    58.3604884055     0.0197931868     0.0001225293 24456.4183383595
   -0.8387755102     0.9950303845    57.0110415164    58.1444136456     0.0197810753     0.0001221879 24458.2377640916
   -0.8367346939     0.9912929239    56.7969008020    57.9295544420     0.0197685353     0.0001218522 24460.0457184778
   -0.8346938776     0.9875766864    56.5839760772    57.7158870984     0.0197555742     0.0001215223 24461.8423788007
   -0.8326530612     0.9838812640    56.3722439680    57.5033886415     0.0197421989     0.0001211980 24463.6279169586
   -0.8306122449     0.9802062611    56.1616818123    57.2920367906     0.0197284161     0.0001208790 24465.4024995697
   -0.8285714286     0.9765512941    55.9522676300    57.0818155938     0.0197143310     0.0001205657 24467.1662881922
   -0.8265306122     0.9729159908    55.7439800947    56.8726983670     0.0196998502     0.0001202576 24468.9194395330
   -0.8244897959     0.9692999900    55.5367985066    56.6646644101     0.0196849735     0.0001199544 24470.6621056456
   -0.8224489796     0.9657029407    55.3307027670    56.4576939572     0.0196697069     0.0001196560 24472.3944341172
   -0.8204081633     0.9621245024    55.1256733545    56.2517678050     0.0196540559     0.0001193623 24474.1165682468
   -0.8183673469     0.9585643440    54.9216913014    56.0468672911     0.0196380257     0.0001190733 24475.8286471349
   -0.8163265306     0.9550221437    54.7187381727    55.8429745074     0.0196216256     0.0001187887 24477.5308039808
   -0.8142857143     0.9514975886    54.5167960447    55.6400753682     0.0196049226     0.0001185088 24479.2231691408
   -0.8122448980     0.9479903746    54.3158474857    55.4381486354     0.0195878503     0.0001182331 24480.9058701046
   -0.8102040816     0.9445002057    54.1158755372    55.2371776227     0.0195704133     0.0001179616 24482.5790307997
   -0.8081632653     0.9410267938    53.9168636960    55.0371460890     0.0195526163     0.0001176941 24484.2427717244
   -0.8061224490     0.9375698586    53.7187958976    54.8380382221     0.0195344637     0.0001174306 24485.8972100746
   -0.8040816327     0.9341291270    53.5216564995    54.6398386231     0.0195159597     0.0001171709 24487.5424598641
   -0.8020408163     0.9307043332    53.3254302661    54.4425322918     0.0194971084     0.0001169150 24489.1786320400
   -0.8000000000     0.9272952180    53.1301023542    54.2461046122     0.0194779139     0.0001166628 24490.8058345920
   -0.7979591837     0.9239015290    52.9356582985    54.0505413388     0.0194583798     0.0001164141 24492.4241726576
   -0.7959183673     0.9205230201    52.7420839987    53.8558285843     0.0194385100     0.0001161690 24494.0337486216
   -0.7938775510     0.9171594514    52.5493657065    53.6619545042     0.0194183377     0.0001159274 24495.6346622114
   -0.7918367347     0.9138105888    52.3574900132    53.4689043462     0.0193978395     0.0001156892 24497.2270105906
   -0.7897959184     0.9104762040    52.1664438387    53.2766648957     0.0193770129     0.0001154542 24498.8108890494
   -0.7877551020     0.9071560743    51.9762144194    53.0852235857     0.0193558614     0.0001152225 24500.3863901852
   -0.7857142857     0.9038499823    51.7867892983    52.8945681503     0.0193343884     0.0001149939 24501.9536037856
   -0.7836734694     0.9005577156    51.5981563144    52.7046866142     0.0193125970     0.0001147683 24503.5126174992
   -0.7816326531     0.8972790671    51.4103035930    52.5155672835     0.0192904905     0.0001145457 24505.0635169042
   -0.7795918367     0.8940138344    51.2232195364    52.3271987367     0.0192680719     0.0001143261 24506.6063855750
   -0.7775510204     0.8907618196    51.0368928148    52.1395698155     0.0192453442     0.0001141093 24508.1413051454
   -0.7755102041     0.8875228296    50.8513123577    51.9526696169     0.0192223104     0.0001138954 24509.6683553693
   -0.7734693878     0.8842966755    50.6664673458    51.7664874851     0.0191989733     0.0001136842 24511.1876141795
   -0.7714285714     0.8810831728    50.4823472028    51.5810130033     0.0191753356     0.0001134756 24512.6991577435
   -0.7693877551     0.8778821410    50.2989415880    51.3962359868     0.0191514001     0.0001132698 24514.2030605171
   -0.7673469388     0.8746934035    50.1162403889    51.2121464758     0.0191271695     0.0001130665 24515.6993952967
   -0.7653061224     0.8715167878    49.9342337142    51.0287347283     0.0191026464     0.0001128657 24517.1882332684
   -0.7632653061     0.8683521249    49.7529118872    50.8459912136     0.0190778332     0.0001126675 24518.6696441381
   -0.7612244898     0.8651992496    49.5722654391    50.6639066061     0.0190527326     0.0001124716 24520.1436964182
   -0.7591836735     0.8620580001    49.3922851027    50.4824717790     0.0190273470     0.0001122782 24521.6104564190
   -0.7571428571     0.8589282182    49.2129618067    50.3016777987     0.0190016787     0.0001120871 24523.0699889521
   -0.7551020408     0.8558097488    49.0342866700    50.1215159188     0.0189757301     0.0001118982 24524.5223575089
   -0.7530612245     0.8527024401    48.8562509955    49.9419775751     0.0189495036     0.0001117117 24525.9676242972
   -0.7510204082     0.8496061434    48.6788462656    49.7630543798     0.0189230014     0.0001115273 24527.4058502768
   -0.7489795918     0.8465207132    48.5020641364    49.5847381170     0.0188962257     0.0001113451 24528.8370951941
   -0.7469387755     0.8434460067    48.3258964330    49.4070207376     0.0188691787     0.0001111651 24530.2614176152
   -0.7448979592     0.8403818842    48.1503351447    49.2298943546     0.0188418627     0.0001109871 24531.6788749577
   -0.7428571429     0.8373282086    47.9753724206    49.0533512385     0.0188142796     0.0001108111 24533.0895235216
   -0.7408163265     0.8342848456    47.8010005647    48.8773838131     0.0187864317     0.0001106372 24534.4934185190
   -0.7387755102     0.8312516635    47.6272120320    48.7019846513     0.0187583209     0.0001104653 24535.8906141032
   -0.7367346939     0.8282285332    47.4539994242    48.5271464707     0.0187299493     0.0001102952 24537.2811633957
   -0.7346938776     0.8252153280    47.2813554856    48.3528621301     0.0187013189     0.0001101271 24538.6651185138
   -0.7326530612     0.8222119238    47.1092730996    48.1791246257     0.0186724316     0.0001099609 24540.0425305957
   -0.7306122449     0.8192181987    46.9377452847    48.0059270868     0.0186432895     0.0001097965 24541.4134498235
   -0.7285714286     0.8162340331    46.7667651908    47.8332627731     0.0186138943     0.0001096339 24542.7779244186
   -0.7265306122     0.8132593097    46.5963260961    47.6611250707     0.0185842480     0.0001094730 24544.1360015609
   -0.7244897959     0.8102939134    46.4264214035    47.4895074892     0.0185543524     0.0001093139 24545.4877282167
   -0.7224489796     0.8073377312    46.2570446372    47.3184036580     0.0185242095     0.0001091565 24546.8331504684
   -0.7204081633     0.8043906520    46.0881894401    47.1478081815     0.0184938359     0.0001090009 24548.1723135356
   -0.7183673469     0.8014525670    45.9198495701    46.9777144034     0.0184632244     0.0001088469 24549.5052617970
   -0.7163265306     0.7985233692    45.7520188977    46.8081159807     0.0184323713     0.0001086946 24550.8320388106
   -0.7142857143     0.7956029535    45.5846914028    46.6390069917     0.0184012784     0.0001085438 24552.1526873335
   -0.7122448980     0.7926912167    45.4178611722    46.4703816204     0.0183699473     0.0001083946 24553.4672493410
   -0.7102040816     0.7897880574    45.2515223968    46.3022341539     0.0183383797     0.0001082470 24554.7757660457
   -0.7081632653     0.7868933760    45.0856693690    46.1345589798     0.0183065772     0.0001081009 24556.0782779148
   -0.7061224490     0.7840070746    44.9202964804    45.9673505837     0.0182745415     0.0001079563 24557.3748246884
   -0.7040816327     0.7811290570    44.7553982192    45.8006035469     0.0182422743     0.0001078132 24558.6654453956
   -0.7020408163     0.7782592286    44.5909691678    45.6343125440     0.0182097771     0.0001076715 24559.9501783715
   -0.7000000000     0.7753974966    44.4270040008    45.4684723407     0.0181770516     0.0001075312 24561.2290612730
   -0.6979591837     0.7725437695    44.2634974825    45.3030777917     0.0181440992     0.0001073924 24562.5021310941
