shape model output for Neptune's 1-bar isobaric surface. models are described in Mankovich et al. 2026, PSJ.
the models summarized in this file assume the symmetric Voyager wind profile from Tollefson et al. (2018, Icarus 311) Table 1.
the distribution of models in this file comes from Markov chain Monte Carlo fits to the Voyager 2 radio occultation reported in Lindal (1992, AJ 103).
these solutions vary the polar radius to fit the Voyager 2 radio occultation to a Gaussian with standard deviation 5 km.
the wind fit polynomial coefficients are also allowed to vary within their Gaussian uncertainties following T18 Table 1.
this model has wind polynomial cofficients a, b, c:    -3.967188e+02    1.995106e-01   -7.095200e-06
mu=sin(phi), phi [radians], and lat_deg [degrees] refer to planetocentric latitude; lat_pg_deg gives planetographic latitude in degrees.
              mu          phi_rad          lat_deg       lat_pg_deg          psi_rad    omega_rad_s-1             r_km 
   -1.0000000000     1.5707963268    90.0000000000    90.0000000000     0.0000000000     0.0002318292 24219.4130812811
   -0.9998144712     1.5515331758    88.8963027451    89.0325626533     0.0023781840     0.0002315676 24219.9684768903
   -0.9996289425     1.5435536961    88.4391122386    88.6313790888     0.0033556896     0.0002312992 24220.5226637859
   -0.9994434137     1.5374305386    88.0882811581    88.3232301842     0.0041006341     0.0002310318 24221.0756447950
   -0.9992578850     1.5322682374    87.7925030866    88.0631904897     0.0047243864     0.0002307651 24221.6274242553
   -0.9990723562     1.5277199472    87.5319052508    87.8338634856     0.0052701654     0.0002304984 24222.1780052472
   -0.9988868275     1.5236077873    87.2962958471    87.6263354829     0.0057602783     0.0002302334 24222.7273899965
   -0.9987012987     1.5198260904    87.0796205724    87.4353010526     0.0062077955     0.0002299663 24223.2755803804
   -0.9985157699     1.5163060092    86.8779347757    87.2573188175     0.0066215007     0.0002297003 24223.8225794350
   -0.9983302412     1.5129997231    86.6884985354    87.0899928158     0.0070073971     0.0002294348 24224.3683886236
   -0.9981447124     1.5098724146    86.5093169626    86.9315795132     0.0073698718     0.0002291698 24224.9130100602
   -0.9979591837     1.5068978001    86.3388841007    86.7807634987     0.0077122504     0.0002289052 24225.4564465368
   -0.9959183673     1.4804147767    84.8215186329    85.4311881490     0.0106407404     0.0002260144 24231.3569051401
   -0.9938775510     1.4600831244    83.6566007642    84.3850933588     0.0127145944     0.0002231615 24237.1179129313
   -0.9918367347     1.4429339318    82.6740244067    83.4947373373     0.0143241429     0.0002203464 24242.7429000972
   -0.9897959184     1.4278174270    81.8079124837    82.7031880899     0.0156255070     0.0002175689 24248.2352006925
   -0.9877551020     1.4141440401    81.0244851196    81.9814079594     0.0167014542     0.0002148296 24253.5981124923
   -0.9857142857     1.4015635991    80.3036789465    81.3122221970     0.0176024004     0.0002121265 24258.8347939025
   -0.9836734694     1.3898479862    79.6324237728    80.6845101236     0.0183623708     0.0002094595 24263.9484119156
   -0.9816326531     1.3788387766    79.0016425268    80.0906085056     0.0190060418     0.0002068302 24268.9420808694
   -0.9795918367     1.3684206412    78.4047273409    79.5249308901     0.0195512402     0.0002042356 24273.8188274036
   -0.9775510204     1.3585065303    77.8366906282    78.9833225303     0.0200125020     0.0002016775 24278.5816255768
   -0.9755102041     1.3490288258    77.2936581616    78.4625519619     0.0204010454     0.0001991549 24283.2333951757
   -0.9734693878     1.3399337634    76.7725494708    77.9600679973     0.0207261082     0.0001966674 24287.7769636387
   -0.9714285714     1.3311777582    76.2708673246    77.4738164439     0.0209954229     0.0001942151 24292.2151012541
   -0.9693877551     1.3227248956    75.7865539757    77.0021124762     0.0212154981     0.0001917977 24296.5505438603
   -0.9673469388     1.3145451659    75.3178899826    76.5435370161     0.0213915762     0.0001894134 24300.7859793100
   -0.9653061224     1.3066131882    74.8634211408    76.0925887546     0.0214530219     0.0001866886 24304.9210016189
   -0.9632653061     1.2989072697    74.4219045316    75.6443938245     0.0213364632     0.0001833050 24308.9287379648
   -0.9612244898     1.2914086960    73.9922679079    75.2087460866     0.0212315495     0.0001801845 24312.8092086130
   -0.9591836735     1.2841011890    73.5735785965    74.7847217861     0.0211384364     0.0001773028 24316.5738507377
   -0.9571428571     1.2769704845    73.1650193268    74.3713521363     0.0210544794     0.0001746264 24320.2325777532
   -0.9551020408     1.2700040004    72.7658691871    73.9678393804     0.0209783374     0.0001721314 24323.7940142248
   -0.9530612245     1.2631905710    72.3754884407    73.5734945071     0.0209091503     0.0001697986 24327.2657036729
   -0.9510204082     1.2565202341    71.9933062850    73.1877112584     0.0208462994     0.0001676123 24330.6542758030
   -0.9489795918     1.2499840563    71.6188108859    72.8099378764     0.0207890878     0.0001655581 24333.9655927384
   -0.9469387755     1.2435739909    71.2515411916    72.4396579011     0.0207365485     0.0001636220 24337.2048380864
   -0.9448979592     1.2372827589    70.8910801509    72.0764242665     0.0206881576     0.0001617930 24340.3767447714
   -0.9428571429     1.2311037506    70.5370490537    71.7198313438     0.0206434453     0.0001600615 24343.4854991142
   -0.9408163265     1.2250309424    70.1891027733    71.3695099002     0.0206019909     0.0001584192 24346.5348510547
   -0.9387755102     1.2190588266    69.8469257429    71.0251296764     0.0205635379     0.0001568591 24349.5281862966
   -0.9367346939     1.2131823517    69.5102285299    70.6863899478     0.0205278893     0.0001553750 24352.4686537033
   -0.9346938776     1.2073968710    69.1787449051    70.3529950993     0.0204945321     0.0001539601 24355.3590495610
   -0.9326530612     1.2016980990    68.8522293213    70.0246835210     0.0204631861     0.0001526090 24358.2019629340
   -0.9306122449     1.1960820730    68.5304547326    69.7012138514     0.0204336014     0.0001513168 24360.9997325378
   -0.9285714286     1.1905451201    68.2132107017    69.3823629030     0.0204055554     0.0001500791 24363.7545825627
   -0.9265306122     1.1850838286    67.9003017483    69.0679549292     0.0203793925     0.0001488944 24366.4684908300
   -0.9244897959     1.1796950225    67.5915459031    68.7577721305     0.0203544875     0.0001477573 24369.1432850746
   -0.9224489796     1.1743757395    67.2867734365    68.4516300195     0.0203305827     0.0001466639 24371.7806907361
   -0.9204081633     1.1691232113    66.9858257369    68.1493796465     0.0203078467     0.0001456129 24374.3823353598
   -0.9183673469     1.1639348463    66.6885543185    67.8508703107     0.0202862410     0.0001446017 24376.9496448044
   -0.9163265306     1.1588082142    66.3948199388    67.5559320659     0.0202652296     0.0001436263 24379.4840225184
   -0.9142857143     1.1537410325    66.1044918138    67.2644560654     0.0202451954     0.0001426864 24381.9867260781
   -0.9122448980     1.1487311539    65.8174469161    66.9763010707     0.0202258205     0.0001417791 24384.4589832674
   -0.9102040816     1.1437765557    65.5335693460    66.6913380813     0.0202068764     0.0001409017 24386.9018766350
   -0.9081632653     1.1388753294    65.2527497676    66.4094821590     0.0201887888     0.0001400549 24389.3164819161
   -0.9061224490     1.1340256726    64.9748848997    66.1305879778     0.0201708239     0.0001392340 24391.7037880402
   -0.9040816327     1.1292258803    64.6998770572    65.8545973462     0.0201536710     0.0001384408 24394.0647161836
   -0.9020408163     1.1244743380    64.4276337361    65.5813730369     0.0201365495     0.0001376709 24396.4001454423
   -0.9000000000     1.1197695150    64.1580672368    65.3108615123     0.0201200557     0.0001369258 24398.7109136235
   -0.8979591837     1.1151099586    63.8910943224    65.0429423054     0.0201035398     0.0001362017 24400.9977849712
   -0.8959183673     1.1104942885    63.6266359071    64.7775694506     0.0200875798     0.0001355001 24403.2614931480
   -0.8938775510     1.1059211919    63.3646167727    64.5146291534     0.0200715025     0.0001348173 24405.5027498823
   -0.8918367347     1.1013894190    63.1049653087    64.2540851217     0.0200559242     0.0001341552 24407.7222172660
   -0.8897959184     1.0968977787    62.8476132749    63.9958349294     0.0200402484     0.0001335105 24409.9205050062
   -0.8877551020     1.0924451350    62.5924955840    63.7398326609     0.0200248096     0.0001328838 24412.0981928987
   -0.8857142857     1.0880304035    62.3395501007    63.4860061219     0.0200094323     0.0001322738 24414.2558765866
   -0.8836734694     1.0836525480    62.0887174586    63.2342888347     0.0199939923     0.0001316793 24416.3940965658
   -0.8816326531     1.0793105778    61.8399408902    62.9846430188     0.0199788211     0.0001311011 24418.5133417531
   -0.8795918367     1.0750035447    61.5931660703    62.7369896730     0.0199634879     0.0001305368 24420.6141015789
   -0.8775510204     1.0707305406    61.3483409720    62.4912893566     0.0199482125     0.0001299868 24422.6968422951
   -0.8755102041     1.0664906953    61.1054157324    62.2474917324     0.0199329865     0.0001294507 24424.7620149486
   -0.8734693878     1.0622831742    60.8643425293    62.0055362408     0.0199175877     0.0001289270 24426.8100487928
   -0.8714285714     1.0581071761    60.6250754655    61.7653898539     0.0199022406     0.0001284161 24428.8413545872
   -0.8693877551     1.0539619319    60.3875704629    61.5270036904     0.0198868614     0.0001279174 24430.8563076742
   -0.8673469388     1.0498467020    60.1517851626    61.2903266720     0.0198712980     0.0001274297 24432.8552686946
   -0.8653061224     1.0457607758    59.9176788330    61.0553258007     0.0198556853     0.0001269533 24434.8386086477
   -0.8632653061     1.0417034691    59.6852122830    60.8219642766     0.0198400651     0.0001264880 24436.8066676293
   -0.8612244898     1.0376741234    59.4543477825    60.5901936151     0.0198242496     0.0001260326 24438.7597642448
   -0.8591836735     1.0336721045    59.2250489867    60.3599776119     0.0198082413     0.0001255868 24440.6982121430
   -0.8571428571     1.0296968008    58.9972808661    60.1312946794     0.0197922748     0.0001251513 24442.6223155647
   -0.8551020408     1.0257476230    58.7710096411    59.9040984755     0.0197761309     0.0001247249 24444.5323759112
   -0.8530612245     1.0218240020    58.5462027200    59.6783549206     0.0197597835     0.0001243072 24446.4286660996
   -0.8510204082     1.0179253889    58.3228286418    59.4540326446     0.0197432344     0.0001238978 24448.3114443582
   -0.8489795918     1.0140512533    58.1008570218    59.2311126239     0.0197266816     0.0001234974 24450.1809701672
   -0.8469387755     1.0102010827    57.8802585008    59.0095543392     0.0197099306     0.0001231050 24452.0375046064
   -0.8448979592     1.0063743820    57.6610046973    58.7893286604     0.0196929682     0.0001227201 24453.8812945185
   -0.8428571429     1.0025706719    57.4430681625    58.5704082018     0.0196757955     0.0001223427 24455.7125516838
   -0.8408163265     0.9987894889    57.2264223382    58.3527700822     0.0196584767     0.0001219727 24457.5314949609
   -0.8387755102     0.9950303845    57.0110415164    58.1363906367     0.0196410474     0.0001216100 24459.3383545608
   -0.8367346939     0.9912929239    56.7969008020    57.9212387787     0.0196233996     0.0001212541 24461.1333461135
   -0.8346938776     0.9875766864    56.5839760772    57.7072904408     0.0196055342     0.0001209048 24462.9166647808
   -0.8326530612     0.9838812640    56.3722439680    57.4945222905     0.0195874519     0.0001205618 24464.6885012923
   -0.8306122449     0.9802062611    56.1616818123    57.2829116999     0.0195691532     0.0001202250 24466.4490403650
   -0.8285714286     0.9765512941    55.9522676300    57.0724433847     0.0195507551     0.0001198946 24468.1984651816
   -0.8265306122     0.9729159908    55.7439800947    56.8630893092     0.0195321405     0.0001195701 24469.9369481799
   -0.8244897959     0.9692999900    55.5367985066    56.6548284016     0.0195133028     0.0001192513 24471.6646581970
   -0.8224489796     0.9657029407    55.3307027670    56.4476405964     0.0194942427     0.0001189380 24473.3817631646
   -0.8204081633     0.9621245024    55.1256733545    56.2415064009     0.0194749606     0.0001186300 24475.0884288552
   -0.8183673469     0.9585643440    54.9216913014    56.0364068716     0.0194554569     0.0001183273 24476.7848103398
   -0.8163265306     0.9550221437    54.7187381727    55.8323238679     0.0194357369     0.0001180297 24478.4710555614
   -0.8142857143     0.9514975886    54.5167960447    55.6292436299     0.0194158731     0.0001177373 24480.1473083674
   -0.8122448980     0.9479903746    54.3158474857    55.4271439778     0.0193957828     0.0001174497 24481.8137086210
   -0.8102040816     0.9445002057    54.1158755372    55.2260079817     0.0193754663     0.0001171669 24483.4703937259
   -0.8081632653     0.9410267938    53.9168636960    55.0258191645     0.0193549242     0.0001168885 24485.1174973788
   -0.8061224490     0.9375698586    53.7187958976    54.8265614850     0.0193341568     0.0001166147 24486.7551470871
   -0.8040816327     0.9341291270    53.5216564995    54.6282193227     0.0193131646     0.0001163452 24488.3834677381
   -0.8020408163     0.9307043332    53.3254302661    54.4307774624     0.0192919480     0.0001160799 24490.0025817405
   -0.8000000000     0.9272952180    53.1301023542    54.2342210802     0.0192705071     0.0001158187 24491.6126091053
   -0.7979591837     0.9239015290    52.9356582985    54.0385357288     0.0192488424     0.0001155616 24493.2136668614
   -0.7959183673     0.9205230201    52.7420839987    53.8437073253     0.0192269542     0.0001153084 24494.8058669524
   -0.7938775510     0.9171594514    52.5493657065    53.6497240907     0.0192048768     0.0001150592 24496.3893185093
   -0.7918367347     0.9138105888    52.3574900132    53.4565708518     0.0191825794     0.0001148138 24497.9641275519
   -0.7897959184     0.9104762040    52.1664438387    53.2642341660     0.0191600557     0.0001145721 24499.5303970314
   -0.7877551020     0.9071560743    51.9762144194    53.0727012954     0.0191373062     0.0001143339 24501.0882269372
   -0.7857142857     0.9038499823    51.7867892983    52.8819598077     0.0191143313     0.0001140991 24502.6377143996
   -0.7836734694     0.9005577156    51.5981563144    52.6919975668     0.0190911313     0.0001138678 24504.1789541895
   -0.7816326531     0.8972790671    51.4103035930    52.5028027223     0.0190677069     0.0001136399 24505.7120408686
   -0.7795918367     0.8940138344    51.2232195364    52.3143637012     0.0190440583     0.0001134152 24507.2370658420
   -0.7775510204     0.8907618196    51.0368928148    52.1266691981     0.0190201860     0.0001131936 24508.7541177939
   -0.7755102041     0.8875228296    50.8513123577    51.9397081670     0.0189960904     0.0001129752 24510.2632829803
   -0.7734693878     0.8842966755    50.6664673458    51.7534698132     0.0189717720     0.0001127599 24511.7646453082
   -0.7714285714     0.8810831728    50.4823472028    51.5679435853     0.0189472312     0.0001125475 24513.2582864120
   -0.7693877551     0.8778821410    50.2989415880    51.3831191679     0.0189224684     0.0001123380 24514.7442857258
   -0.7673469388     0.8746934035    50.1162403889    51.1989864740     0.0188974841     0.0001121314 24516.2227207353
   -0.7653061224     0.8715167878    49.9342337142    51.0155356382     0.0188722788     0.0001119276 24517.6936688645
   -0.7632653061     0.8683521249    49.7529118872    50.8327570103     0.0188468528     0.0001117265 24519.1572047382
   -0.7612244898     0.8651992496    49.5722654391    50.6506411481     0.0188212067     0.0001115281 24520.6134008757
   -0.7591836735     0.8620580001    49.3922851027    50.4691788118     0.0187953409     0.0001113324 24522.0623282266
   -0.7571428571     0.8589282182    49.2129618067    50.2883609581     0.0187692560     0.0001111392 24523.5040562168
   -0.7551020408     0.8558097488    49.0342866700    50.1081787338     0.0187429523     0.0001109485 24524.9386527917
   -0.7530612245     0.8527024401    48.8562509955    49.9286234710     0.0187164305     0.0001107603 24526.3661844593
   -0.7510204082     0.8496061434    48.6788462656    49.7496866814     0.0186896910     0.0001105745 24527.7867163303
   -0.7489795918     0.8465207132    48.5020641364    49.5713600511     0.0186627344     0.0001103910 24529.2003121575
   -0.7469387755     0.8434460067    48.3258964330    49.3936354357     0.0186355612     0.0001102099 24530.6070343739
   -0.7448979592     0.8403818842    48.1503351447    49.2165048558     0.0186081718     0.0001100311 24532.0069441287
   -0.7428571429     0.8373282086    47.9753724206    49.0399604921     0.0185805670     0.0001098545 24533.4001013212
   -0.7408163265     0.8342848456    47.8010005647    48.8639946807     0.0185527473     0.0001096801 24534.7865631892
   -0.7387755102     0.8312516635    47.6272120320    48.6885999093     0.0185247131     0.0001095078 24536.1663855797
   -0.7367346939     0.8282285332    47.4539994242    48.5137688131     0.0184964651     0.0001093377 24537.5396242308
   -0.7346938776     0.8252153280    47.2813554856    48.3394941704     0.0184680040     0.0001091696 24538.9063337064
   -0.7326530612     0.8222119238    47.1092730996    48.1657688989     0.0184393302     0.0001090035 24540.2665674279
   -0.7306122449     0.8192181987    46.9377452847    47.9925860522     0.0184104445     0.0001088394 24541.6203777041
   -0.7285714286     0.8162340331    46.7667651908    47.8199388157     0.0183813473     0.0001086773 24542.9678157605
   -0.7265306122     0.8132593097    46.5963260961    47.6478205038     0.0183520395     0.0001085171 24544.3089317673
   -0.7244897959     0.8102939134    46.4264214035    47.4762245558     0.0183225215     0.0001083588 24545.6437748665
   -0.7224489796     0.8073377312    46.2570446372    47.3051445332     0.0182927941     0.0001082023 24546.9723931987
   -0.7204081633     0.8043906520    46.0881894401    47.1345750605     0.0182628743     0.0001080477 24548.2948339278
   -0.7183673469     0.8014525670    45.9198495701    46.9645093618     0.0182327529     0.0001078949 24549.6111432662
   -0.7163265306     0.7985233692    45.7520188977    46.7949409992     0.0182024245     0.0001077438 24550.9213664981
   -0.7142857143     0.7956029535    45.5846914028    46.6258639895     0.0181718897     0.0001075945 24552.2255480028
   -0.7122448980     0.7926912167    45.4178611722    46.4572724569     0.0181411492     0.0001074469 24553.5237312769
   -0.7102040816     0.7897880574    45.2515223968    46.2891606305     0.0181102036     0.0001073009 24554.8159589557
   -0.7081632653     0.7868933760    45.0856693690    46.1215228411     0.0180790537     0.0001071565 24556.1022728344
   -0.7061224490     0.7840070746    44.9202964804    45.9543535193     0.0180477000     0.0001070138 24557.3827138879
   -0.7040816327     0.7811290570    44.7553982192    45.7876471926     0.0180161433     0.0001068726 24558.6573222906
   -0.7020408163     0.7782592286    44.5909691678    45.6213984835     0.0179843843     0.0001067330 24559.9261374353
   -0.7000000000     0.7753974966    44.4270040008    45.4556021067     0.0179524236     0.0001065949 24561.1891979516
   -0.6979591837     0.7725437695    44.2634974825    45.2902528673     0.0179202621     0.0001064583 24562.4465423958
