shape model output for Neptune's 1-bar isobaric surface. models are described in Mankovich et al. 2026, PSJ.
the models summarized in this file assume the symmetric Voyager wind profile from Tollefson et al. (2018, Icarus 311) Table 1.
the distribution of models in this file comes from Markov chain Monte Carlo fits to the Voyager 2 radio occultation reported in Lindal (1992, AJ 103).
these solutions vary the polar radius to fit the Voyager 2 radio occultation to a Gaussian with standard deviation 5 km.
the wind fit polynomial coefficients are also allowed to vary within their Gaussian uncertainties following T18 Table 1.
this model has wind polynomial cofficients a, b, c:    -3.975168e+02    2.023583e-01   -1.153306e-05
mu=sin(phi), phi [radians], and lat_deg [degrees] refer to planetocentric latitude; lat_pg_deg gives planetographic latitude in degrees.
              mu          phi_rad          lat_deg       lat_pg_deg          psi_rad    omega_rad_s-1             r_km 
   -1.0000000000     1.5707963268    90.0000000000    90.0000000000     0.0000000000     0.0002009714 24254.6393465321
   -0.9998144712     1.5515331758    88.8963027451    89.0020665910     0.0018459273     0.0002007751 24255.0710020980
   -0.9996289425     1.5435536961    88.4391122386    88.5883947051     0.0026054706     0.0002005738 24255.5018499248
   -0.9994434137     1.5374305386    88.0882811581    88.2707602392     0.0031848608     0.0002003732 24255.9318879215
   -0.9992578850     1.5322682374    87.7925030866    88.0028046308     0.0036704544     0.0002001732 24256.3611202890
   -0.9990723562     1.5277199472    87.5319052508    87.7665747384     0.0040957552     0.0001999731 24256.7895503889
   -0.9988868275     1.5236077873    87.2962958471    87.5528686255     0.0044780398     0.0001997743 24257.2171807690
   -0.9987012987     1.5198260904    87.0796205724    87.3562132535     0.0048274530     0.0001995740 24257.6440134061
   -0.9985157699     1.5163060092    86.8779347757    87.1730527391     0.0051507801     0.0001993744 24258.0700498749
   -0.9983302412     1.5129997231    86.6884985354    87.0009135408     0.0054526705     0.0001991753 24258.4952914577
   -0.9981447124     1.5098724146    86.5093169626    86.8379953277     0.0057365197     0.0001989765 24258.9197403307
   -0.9979591837     1.5068978001    86.3388841007    86.6829395433     0.0060049003     0.0001987780 24259.3434008548
   -0.9959183673     1.4804147767    84.8215186329    85.2978691671     0.0083138852     0.0001966096 24263.9517956226
   -0.9938775510     1.4600831244    83.6566007642    84.2277932301     0.0099691892     0.0001944696 24268.4667282265
   -0.9918367347     1.4429339318    82.6740244067    83.3198137596     0.0112711505     0.0001923579 24272.8904489542
   -0.9897959184     1.4278174270    81.8079124837    82.5149057500     0.0123393603     0.0001902744 24277.2250117995
   -0.9877551020     1.4141440401    81.0244851196    81.7829054280     0.0132369315     0.0001882196 24281.4725399154
   -0.9857142857     1.4015635991    80.3036789465    81.1059446459     0.0140021779     0.0001861920 24285.6350301097
   -0.9836734694     1.3898479862    79.6324237728    80.4724278656     0.0146608372     0.0001841914 24289.7145237306
   -0.9816326531     1.3788387766    79.0016425268    79.8743416685     0.0152314734     0.0001822191 24293.7129774220
   -0.9795918367     1.3684206412    78.4047273409    79.3058472680     0.0157275097     0.0001802728 24297.6322870942
   -0.9775510204     1.3585065303    77.8366906282    78.7625785059     0.0161597920     0.0001783539 24301.4743567269
   -0.9755102041     1.3490288258    77.2936581616    78.2411411175     0.0165366972     0.0001764617 24305.2410402470
   -0.9734693878     1.3399337634    76.7725494708    77.7388483547     0.0168650971     0.0001745958 24308.9341301906
   -0.9714285714     1.3311777582    76.2708673246    77.2535314947     0.0171507252     0.0001727562 24312.5554005575
   -0.9693877551     1.3227248956    75.7865539757    76.7834087764     0.0173983984     0.0001709429 24316.1065796395
   -0.9673469388     1.3145451659    75.3178899826    76.3269838891     0.0176120111     0.0001691544 24319.5893674580
   -0.9653061224     1.3066131882    74.8634211408    75.8806705854     0.0177543521     0.0001671653 24323.0036575782
   -0.9632653061     1.2989072697    74.4219045316    75.4413700831     0.0177930305     0.0001647917 24326.3355261959
   -0.9612244898     1.2914086960    73.9922679079    75.0139714909     0.0178320915     0.0001625944 24329.5852993125
   -0.9591836735     1.2841011890    73.5735785965    74.5975847797     0.0178722795     0.0001605574 24332.7597636325
   -0.9571428571     1.2769704845    73.1650193268    74.1913351904     0.0179125910     0.0001586585 24335.8647782095
   -0.9551020408     1.2700040004    72.7658691871    73.7944836883     0.0179527098     0.0001568818 24338.9054739671
   -0.9530612245     1.2631905710    72.3754884407    73.4063851159     0.0179925412     0.0001552148 24341.8863905736
   -0.9510204082     1.2565202341    71.9933062850    73.0264685248     0.0180320828     0.0001536469 24344.8115493920
   -0.9489795918     1.2499840563    71.6188108859    72.6542167019     0.0180712406     0.0001521687 24347.6844597434
   -0.9469387755     1.2435739909    71.2515411916    72.2891515825     0.0181097177     0.0001507706 24350.5083451683
   -0.9448979592     1.2372827589    70.8910801509    71.9308525116     0.0181474512     0.0001494455 24353.2860051481
   -0.9428571429     1.2311037506    70.5370490537    71.5789374668     0.0181843832     0.0001481870 24356.0200685578
   -0.9408163265     1.2250309424    70.1891027733    71.2330583311     0.0182204617     0.0001469895 24358.7128478924
   -0.9387755102     1.2190588266    69.8469257429    70.8929011379     0.0182557145     0.0001458482 24361.3664660194
   -0.9367346939     1.2131823517    69.5102285299    70.5581791461     0.0182901887     0.0001447591 24363.9828429242
   -0.9346938776     1.2073968710    69.1787449051    70.2286167086     0.0183237197     0.0001437176 24366.5637614249
   -0.9326530612     1.2016980990    68.8522293213    69.9039662360     0.0183562720     0.0001427200 24369.1108376878
   -0.9306122449     1.1960820730    68.5304547326    69.5839990032     0.0183878163     0.0001417631 24371.6255927035
   -0.9285714286     1.1905451201    68.2132107017    69.2685032171     0.0184183290     0.0001408440 24374.1093989219
   -0.9265306122     1.1850838286    67.9003017483    68.9573019117     0.0184481330     0.0001399616 24376.5635384238
   -0.9244897959     1.1796950225    67.5915459031    68.6501962852     0.0184769348     0.0001391121 24378.9891733905
   -0.9224489796     1.1743757395    67.2867734365    68.3470124535     0.0185046617     0.0001382932 24381.3874392713
   -0.9204081633     1.1691232113    66.9858257369    68.0476026911     0.0185315038     0.0001375036 24383.7593499995
   -0.9183673469     1.1639348463    66.6885543185    67.7518216088     0.0185575150     0.0001367420 24386.1058404533
   -0.9163265306     1.1588082142    66.3948199388    67.4595145604     0.0185824267     0.0001360054 24388.4277955120
   -0.9142857143     1.1537410325    66.1044918138    67.1705685868     0.0186065498     0.0001352936 24390.7260870976
   -0.9122448980     1.1487311539    65.8174469161    66.8848526379     0.0186297443     0.0001346047 24393.0014914228
   -0.9102040816     1.1437765557    65.5335693460    66.6022457304     0.0186519215     0.0001339369 24395.2547431991
   -0.9081632653     1.1388753294    65.2527497676    66.3226573672     0.0186734103     0.0001332906 24397.4865447652
   -0.9061224490     1.1340256726    64.9748848997    66.0459600968     0.0186937887     0.0001326626 24399.6975480074
   -0.9040816327     1.1292258803    64.6998770572    65.7720845108     0.0187135503     0.0001320542 24401.8883627328
   -0.9020408163     1.1244743380    64.4276337361    65.5009117278     0.0187322347     0.0001314623 24404.0595783563
   -0.9000000000     1.1197695150    64.1580672368    65.2323786608     0.0187502715     0.0001308879 24406.2117457107
   -0.8979591837     1.1151099586    63.8910943224    64.9663801266     0.0187672777     0.0001303285 24408.3453873823
   -0.8959183673     1.1104942885    63.6266359071    64.7028608209     0.0187836682     0.0001297851 24410.4609992284
   -0.8938775510     1.1059211919    63.3646167727    64.4417223213     0.0187990382     0.0001292552 24412.5590521714
   -0.8918367347     1.1013894190    63.1049653087    64.1829181176     0.0188138257     0.0001287400 24414.6399938815
   -0.8897959184     1.0968977787    62.8476132749    63.9263593247     0.0188276704     0.0001282372 24416.7042502600
   -0.8877551020     1.0924451350    62.5924955840    63.6719952131     0.0188408228     0.0001277474 24418.7522249661
   -0.8857142857     1.0880304035    62.3395501007    63.4197586465     0.0188531957     0.0001272696 24420.7843040813
   -0.8836734694     1.0836525480    62.0887174586    63.1695870908     0.0188647339     0.0001268029 24422.8008570227
   -0.8816326531     1.0793105778    61.8399408902    62.9214378739     0.0188756832     0.0001263479 24424.8022364841
   -0.8795918367     1.0750035447    61.5931660703    62.6752416639     0.0188857819     0.0001259030 24426.7887794482
   -0.8775510204     1.0707305406    61.3483409720    62.4309561537     0.0188951995     0.0001254685 24428.7608081218
   -0.8755102041     1.0664906953    61.1054157324    62.1885324491     0.0189039529     0.0001250440 24430.7186307998
   -0.8734693878     1.0622831742    60.8643425293    61.9479154022     0.0189119143     0.0001246284 24432.6625426671
   -0.8714285714     1.0581071761    60.6250754655    61.7090689134     0.0189192547     0.0001242222 24434.5928265403
   -0.8693877551     1.0539619319    60.3875704629    61.4719467921     0.0189259373     0.0001238249 24436.5097535577
   -0.8673469388     1.0498467020    60.1517851626    61.2365018492     0.0189318776     0.0001234356 24438.4135838203
   -0.8653061224     1.0457607758    59.9176788330    61.0026995838     0.0189371846     0.0001230545 24440.3045687248
   -0.8632653061     1.0417034691    59.6852122830    60.7705034047     0.0189419034     0.0001226815 24442.1829502976
   -0.8612244898     1.0376741234    59.4543477825    60.5398692093     0.0189459230     0.0001223158 24444.0489595839
   -0.8591836735     1.0336721045    59.2250489867    60.3107616175     0.0189492601     0.0001219572 24445.9028190564
   -0.8571428571     1.0296968008    58.9972808661    60.0831556254     0.0189520898     0.0001216060 24447.7447430487
   -0.8551020408     1.0257476230    58.7710096411    59.8570096992     0.0189542767     0.0001212616 24449.5749381591
   -0.8530612245     1.0218240020    58.5462027200    59.6322910008     0.0189558165     0.0001209236 24451.3936036283
   -0.8510204082     1.0179253889    58.3228286418    59.4089688717     0.0189567232     0.0001205917 24453.2009316944
   -0.8489795918     1.0140512533    58.1008570218    59.1870214712     0.0189571459     0.0001202665 24454.9971079254
   -0.8469387755     1.0102010827    57.8802585008    58.9664124583     0.0189569627     0.0001199472 24456.7823115326
   -0.8448979592     1.0063743820    57.6610046973    58.7471135938     0.0189561763     0.0001196335 24458.5567156637
   -0.8428571429     1.0025706719    57.4430681625    58.5290981076     0.0189547983     0.0001193253 24460.3204876802
   -0.8408163265     0.9987894889    57.2264223382    58.3123426088     0.0189528841     0.0001190226 24462.0737894181
   -0.8387755102     0.9950303845    57.0110415164    58.0968234142     0.0189504691     0.0001187254 24463.8167774331
   -0.8367346939     0.9912929239    56.7969008020    57.8825118990     0.0189474880     0.0001184332 24465.5496032325
   -0.8346938776     0.9875766864    56.5839760772    57.6693845280     0.0189439512     0.0001181460 24467.2724134943
   -0.8326530612     0.9838812640    56.3722439680    57.4574184852     0.0189398683     0.0001178635 24468.9853502734
   -0.8306122449     0.9802062611    56.1616818123    57.2465916433     0.0189352486     0.0001175856 24470.6885512047
   -0.8285714286     0.9765512941    55.9522676300    57.0368872251     0.0189301831     0.0001173126 24472.3821511239
   -0.8265306122     0.9729159908    55.7439800947    56.8282796793     0.0189245978     0.0001170439 24474.0662804005
   -0.8244897959     0.9692999900    55.5367985066    56.6207485051     0.0189184964     0.0001167796 24475.7410644791
   -0.8224489796     0.9657029407    55.3307027670    56.4142740723     0.0189118870     0.0001165193 24477.4066251599
   -0.8204081633     0.9621245024    55.1256733545    56.2088373103     0.0189047774     0.0001162632 24479.0630807429
   -0.8183673469     0.9585643440    54.9216913014    56.0044196858     0.0188971752     0.0001160109 24480.7105461637
   -0.8163265306     0.9550221437    54.7187381727    55.8010033772     0.0188890912     0.0001157626 24482.3491331241
   -0.8142857143     0.9514975886    54.5167960447    55.5985738209     0.0188805840     0.0001155182 24483.9789502148
   -0.8122448980     0.9479903746    54.3158474857    55.3971105912     0.0188716013     0.0001152775 24485.6001030330
   -0.8102040816     0.9445002057    54.1158755372    55.1965971164     0.0188621499     0.0001150403 24487.2126942936
   -0.8081632653     0.9410267938    53.9168636960    54.9970172673     0.0188522362     0.0001148066 24488.8168239359
   -0.8061224490     0.9375698586    53.7187958976    54.7983553411     0.0188418668     0.0001145763 24490.4125892245
   -0.8040816327     0.9341291270    53.5216564995    54.6005960456     0.0188310475     0.0001143494 24492.0000848459
   -0.8020408163     0.9307043332    53.3254302661    54.4037244844     0.0188197844     0.0001141256 24493.5794030004
   -0.8000000000     0.9272952180    53.1301023542    54.2077261432     0.0188080832     0.0001139050 24495.1506334899
   -0.7979591837     0.9239015290    52.9356582985    54.0125868758     0.0187959495     0.0001136876 24496.7138638016
   -0.7959183673     0.9205230201    52.7420839987    53.8182928914     0.0187833886     0.0001134731 24498.2691791884
   -0.7938775510     0.9171594514    52.5493657065    53.6248321599     0.0187704306     0.0001132617 24499.8166627447
   -0.7918367347     0.9138105888    52.3574900132    53.4321902773     0.0187570581     0.0001130532 24501.3563954799
   -0.7897959184     0.9104762040    52.1664438387    53.2403541728     0.0187432712     0.0001128475 24502.8884564067
   -0.7877551020     0.9071560743    51.9762144194    53.0493113658     0.0187290749     0.0001126446 24504.4129230564
   -0.7857142857     0.9038499823    51.7867892983    52.8590496746     0.0187144740     0.0001124444 24505.9298709250
   -0.7836734694     0.9005577156    51.5981563144    52.6695572062     0.0186994732     0.0001122468 24507.4393735352
   -0.7816326531     0.8972790671    51.4103035930    52.4808223469     0.0186840770     0.0001120517 24508.9415026744
   -0.7795918367     0.8940138344    51.2232195364    52.2928337537     0.0186682898     0.0001118593 24510.4363284492
   -0.7775510204     0.8907618196    51.0368928148    52.1055803448     0.0186521161     0.0001116693 24511.9239193386
   -0.7755102041     0.8875228296    50.8513123577    51.9190512922     0.0186355600     0.0001114817 24513.4043422443
   -0.7734693878     0.8842966755    50.6664673458    51.7332360127     0.0186186256     0.0001112965 24514.8776625397
   -0.7714285714     0.8810831728    50.4823472028    51.5481241611     0.0186013170     0.0001111136 24516.3439441164
   -0.7693877551     0.8778821410    50.2989415880    51.3637056224     0.0185836382     0.0001109330 24517.8032494288
   -0.7673469388     0.8746934035    50.1162403889    51.1799705046     0.0185655929     0.0001107546 24519.2556395376
   -0.7653061224     0.8715167878    49.9342337142    50.9969091323     0.0185471849     0.0001105784 24520.7011741506
   -0.7632653061     0.8683521249    49.7529118872    50.8145120396     0.0185284180     0.0001104044 24522.1399116633
   -0.7612244898     0.8651992496    49.5722654391    50.6327699643     0.0185092957     0.0001102325 24523.5719091964
   -0.7591836735     0.8620580001    49.3922851027    50.4516738418     0.0184898216     0.0001100626 24524.9972226330
   -0.7571428571     0.8589282182    49.2129618067    50.2712147988     0.0184699990     0.0001098947 24526.4159066539
   -0.7551020408     0.8558097488    49.0342866700    50.0913841483     0.0184498315     0.0001097289 24527.8280147720
   -0.7530612245     0.8527024401    48.8562509955    49.9121733837     0.0184293223     0.0001095650 24529.2335993648
   -0.7510204082     0.8496061434    48.6788462656    49.7335741740     0.0184084747     0.0001094030 24530.6327117060
   -0.7489795918     0.8465207132    48.5020641364    49.5555783584     0.0183872919     0.0001092428 24532.0254019965
   -0.7469387755     0.8434460067    48.3258964330    49.3781779418     0.0183657770     0.0001090845 24533.4117193933
   -0.7448979592     0.8403818842    48.1503351447    49.2013650899     0.0183439331     0.0001089280 24534.7917120383
   -0.7428571429     0.8373282086    47.9753724206    49.0251321251     0.0183217632     0.0001087733 24536.1654271137
   -0.7408163265     0.8342848456    47.8010005647    48.8494715214     0.0182992703     0.0001086204 24537.5329116477
   -0.7387755102     0.8312516635    47.6272120320    48.6743759013     0.0182764573     0.0001084691 24538.8942112882
   -0.7367346939     0.8282285332    47.4539994242    48.4998380305     0.0182533271     0.0001083195 24540.2493704241
   -0.7346938776     0.8252153280    47.2813554856    48.3258508153     0.0182298825     0.0001081716 24541.5984326020
   -0.7326530612     0.8222119238    47.1092730996    48.1524072976     0.0182061263     0.0001080252 24542.9414405468
   -0.7306122449     0.8192181987    46.9377452847    47.9795006522     0.0181820612     0.0001078805 24544.2784361827
   -0.7285714286     0.8162340331    46.7667651908    47.8071241831     0.0181576898     0.0001077373 24545.6094606535
   -0.7265306122     0.8132593097    46.5963260961    47.6352713195     0.0181330149     0.0001075957 24546.9345543416
   -0.7244897959     0.8102939134    46.4264214035    47.4639356134     0.0181080390     0.0001074556 24548.2537568873
   -0.7224489796     0.8073377312    46.2570446372    47.2931107359     0.0180827647     0.0001073170 24549.5671072061
   -0.7204081633     0.8043906520    46.0881894401    47.1227912013     0.0180572072     0.0001071798 24550.8746435070
   -0.7183673469     0.8014525670    45.9198495701    46.9529704726     0.0180313613     0.0001070442 24552.1764033094
   -0.7163265306     0.7985233692    45.7520188977    46.7836422933     0.0180052249     0.0001069099 24553.4724234593
   -0.7142857143     0.7956029535    45.5846914028    46.6148007804     0.0179788003     0.0001067770 24554.7627401451
   -0.7122448980     0.7926912167    45.4178611722    46.4464401553     0.0179520899     0.0001066455 24556.0473889137
   -0.7102040816     0.7897880574    45.2515223968    46.2785547419     0.0179250959     0.0001065154 24557.3264046849
   -0.7081632653     0.7868933760    45.0856693690    46.1111389638     0.0178978208     0.0001063865 24558.5998217660
   -0.7061224490     0.7840070746    44.9202964804    45.9441873419     0.0178702667     0.0001062590 24559.8676738661
   -0.7040816327     0.7811290570    44.7553982192    45.7776944920     0.0178424359     0.0001061327 24561.1299941093
   -0.7020408163     0.7782592286    44.5909691678    45.6116551227     0.0178143305     0.0001060077 24562.3868150484
   -0.7000000000     0.7753974966    44.4270040008    45.4460640328     0.0177859528     0.0001058840 24563.6381686774
   -0.6979591837     0.7725437695    44.2634974825    45.2809161094     0.0177573049     0.0001057614 24564.8840864440
