shape model output for Neptune's 1-bar isobaric surface. models are described in Mankovich et al. 2026, PSJ.
the models summarized in this file assume the symmetric Voyager wind profile from Tollefson et al. (2018, Icarus 311) Table 1.
the distribution of models in this file comes from Markov chain Monte Carlo fits to the Voyager 2 radio occultation reported in Lindal (1992, AJ 103).
these solutions vary the polar radius to fit the Voyager 2 radio occultation to a Gaussian with standard deviation 5 km.
the wind fit polynomial coefficients are also allowed to vary within their Gaussian uncertainties following T18 Table 1.
this model has wind polynomial cofficients a, b, c:    -3.968391e+02    1.951041e-01   -7.351091e-06
mu=sin(phi), phi [radians], and lat_deg [degrees] refer to planetocentric latitude; lat_pg_deg gives planetographic latitude in degrees.
              mu          phi_rad          lat_deg       lat_pg_deg          psi_rad    omega_rad_s-1             r_km 
   -1.0000000000     1.5707963268    90.0000000000    90.0000000000     0.0000000000     0.0002236947 25536.8681589921
   -0.9998144712     1.5515331758    88.8963027451    89.0426184330     0.0025536905     0.0002234503 25537.4969726069
   -0.9996289425     1.5435536961    88.4391122386    88.6455775210     0.0036034990     0.0002231997 25538.1244460387
   -0.9994434137     1.5374305386    88.0882811581    88.3405920763     0.0044036563     0.0002229499 25538.7505785641
   -0.9992578850     1.5322682374    87.7925030866    88.0832065309     0.0050737323     0.0002227008 25539.3753772769
   -0.9990723562     1.5277199472    87.5319052508    87.8562066009     0.0056601263     0.0002224516 25539.9988476235
   -0.9988868275     1.5236077873    87.2962958471    87.6507724974     0.0061867847     0.0002222041 25540.6209936767
   -0.9987012987     1.5198260904    87.0796205724    87.4616539845     0.0066677409     0.0002219546 25541.2418185734
   -0.9985157699     1.5163060092    86.8779347757    87.2854464951     0.0071124212     0.0002217061 25541.8613248000
   -0.9983302412     1.5129997231    86.6884985354    87.1197793186     0.0075272697     0.0002214581 25542.4795150712
   -0.9981447124     1.5098724146    86.5093169626    86.9629273536     0.0079169948     0.0002212105 25543.0963918165
   -0.9979591837     1.5068978001    86.3388841007    86.8135891458     0.0082851660     0.0002209633 25543.7119570348
   -0.9959183673     1.4804147767    84.8215186329    85.4768034933     0.0114368784     0.0002182630 25550.3974179823
   -0.9938775510     1.4600831244    83.6566007642    84.4399850249     0.0136726347     0.0002155980 25556.9282503636
   -0.9918367347     1.4429339318    82.6740244067    83.5570095987     0.0154109988     0.0002129684 25563.3081467252
   -0.9897959184     1.4278174270    81.8079124837    82.7715853996     0.0168192653     0.0002103738 25569.5406788882
   -0.9877551020     1.4141440401    81.0244851196    82.0550106446     0.0179860634     0.0002078149 25575.6294214892
   -0.9857142857     1.4015635991    80.3036789465    81.3903134433     0.0189653497     0.0002052899 25581.5778319196
   -0.9836734694     1.3898479862    79.6324237728    80.7665087172     0.0197935163     0.0002027985 25587.3893290670
   -0.9816326531     1.3788387766    79.0016425268    80.1760306544     0.0204969395     0.0002003424 25593.0672781626
   -0.9795918367     1.3684206412    78.4047273409    79.6133630348     0.0210946723     0.0001979187 25598.6149590587
   -0.9775510204     1.3585065303    77.8366906282    79.0744077472     0.0216022389     0.0001955291 25604.0355960443
   -0.9755102041     1.3490288258    77.2936581616    78.5559770126     0.0220316202     0.0001931727 25609.3323556256
   -0.9734693878     1.3399337634    76.7725494708    78.0555554784     0.0223926792     0.0001908491 25614.5083352687
   -0.9714285714     1.3311777582    76.2708673246    77.5711188833     0.0226936708     0.0001885583 25619.5665578805
   -0.9693877551     1.3227248956    75.7865539757    77.1010075933     0.0229415435     0.0001863001 25624.5099861466
   -0.9673469388     1.3145451659    75.3178899826    76.6438228932     0.0231418950     0.0001840729 25629.3415364422
   -0.9653061224     1.3066131882    74.8634211408    76.1937729374     0.0232190191     0.0001815256 25634.0606139344
   -0.9632653061     1.2989072697    74.4219045316    75.7456950086     0.0231045024     0.0001783582 25638.6369437181
   -0.9612244898     1.2914086960    73.9922679079    75.3101522590     0.0230014211     0.0001754361 25643.0700059344
   -0.9591836735     1.2841011890    73.5735785965    74.8862282949     0.0229100592     0.0001727369 25647.3726593086
   -0.9571428571     1.2769704845    73.1650193268    74.4729503559     0.0228277028     0.0001702293 25651.5559721174
   -0.9551020408     1.2700040004    72.7658691871    74.0695205170     0.0227530080     0.0001678910 25655.6295197842
   -0.9530612245     1.2631905710    72.3754884407    73.6752506961     0.0226851308     0.0001657041 25659.6018496430
   -0.9510204082     1.2565202341    71.9933062850    73.2895358769     0.0226234742     0.0001636540 25663.4802237523
   -0.9489795918     1.2499840563    71.6188108859    72.9118247933     0.0225673500     0.0001617273 25667.2713149506
   -0.9469387755     1.2435739909    71.2515411916    72.5415999648     0.0225157731     0.0001599108 25670.9809285847
   -0.9448979592     1.2372827589    70.8910801509    72.1784146545     0.0224682257     0.0001581944 25674.6142503660
   -0.9428571429     1.2311037506    70.5370490537    71.8218634977     0.0224242423     0.0001565691 25678.1760404422
   -0.9408163265     1.2250309424    70.1891027733    71.4715774554     0.0223834058     0.0001550271 25681.6704935169
   -0.9387755102     1.2190588266    69.8469257429    71.1272269171     0.0223454709     0.0001535619 25685.1014374786
   -0.9367346939     1.2131823517    69.5102285299    70.7885118616     0.0223102529     0.0001521677 25688.4723194646
   -0.9346938776     1.2073968710    69.1787449051    70.4551359227     0.0222772258     0.0001508383 25691.7863577599
   -0.9326530612     1.2016980990    68.8522293213    70.1268375296     0.0222461099     0.0001495684 25695.0464308236
   -0.9306122449     1.1960820730    68.5304547326    69.8033753665     0.0222166562     0.0001483536 25698.2552172165
   -0.9285714286     1.1905451201    68.2132107017    69.4845262788     0.0221886427     0.0001471899 25701.4151299686
   -0.9265306122     1.1850838286    67.9003017483    69.1701169076     0.0221624554     0.0001460757 25704.5284514451
   -0.9244897959     1.1796950225    67.5915459031    68.8599276067     0.0221374369     0.0001450060 25707.5972499031
   -0.9224489796     1.1743757395    67.2867734365    68.5537735120     0.0221133229     0.0001439772 25710.6234658344
   -0.9204081633     1.1691232113    66.9858257369    68.2515070845     0.0220903068     0.0001429880 25713.6088952149
   -0.9183673469     1.1639348463    66.6885543185    67.9529780952     0.0220683580     0.0001420362 25716.5551616810
   -0.9163265306     1.1588082142    66.3948199388    67.6580148083     0.0220469096     0.0001411177 25719.4638406411
   -0.9142857143     1.1537410325    66.1044918138    67.3665106090     0.0220263832     0.0001402326 25722.3364078501
   -0.9122448980     1.1487311539    65.8174469161    67.0783233316     0.0220064449     0.0001393779 25725.1741841692
   -0.9102040816     1.1437765557    65.5335693460    66.7933233940     0.0219868559     0.0001385514 25727.9784177952
   -0.9081632653     1.1388753294    65.2527497676    66.5114282058     0.0219680830     0.0001377533 25730.7503267948
   -0.9061224490     1.1340256726    64.9748848997    66.2324894952     0.0219493409     0.0001369796 25733.4910442525
   -0.9040816327     1.1292258803    64.6998770572    65.9564525788     0.0219313802     0.0001362319 25736.2016036161
   -0.9020408163     1.1244743380    64.4276337361    65.6831769798     0.0219133635     0.0001355059 25738.8829919346
   -0.9000000000     1.1197695150    64.1580672368    65.4126122231     0.0218959406     0.0001348032 25741.5361541921
   -0.8979591837     1.1151099586    63.8910943224    65.1446351151     0.0218784141     0.0001341201 25744.1619561383
   -0.8959183673     1.1104942885    63.6266359071    64.8792026587     0.0218614139     0.0001334582 25746.7612360979
   -0.8938775510     1.1059211919    63.3646167727    64.6161981513     0.0218442159     0.0001328139 25749.3347688754
   -0.8918367347     1.1013894190    63.1049653087    64.3555884447     0.0218274914     0.0001321890 25751.8833248936
   -0.8897959184     1.0968977787    62.8476132749    64.0972685121     0.0218105984     0.0001315803 25754.4076139824
   -0.8877551020     1.0924451350    62.5924955840    63.8411942374     0.0217939029     0.0001309886 25756.9083233146
   -0.8857142857     1.0880304035    62.3395501007    63.5872927790     0.0217772180     0.0001304125 25759.3860780169
   -0.8836734694     1.0836525480    62.0887174586    63.3354972399     0.0217604122     0.0001298510 25761.8414802072
   -0.8816326531     1.0793105778    61.8399408902    63.0857716158     0.0217438481     0.0001293047 25764.2751089440
   -0.8795918367     1.0750035447    61.5931660703    62.8380349813     0.0217270613     0.0001287716 25766.6875271005
   -0.8775510204     1.0707305406    61.3483409720    62.5922491149     0.0217102927     0.0001282519 25769.0792757154
   -0.8755102041     1.0664906953    61.1054157324    62.3483637828     0.0216935359     0.0001277451 25771.4508407071
   -0.8734693878     1.0622831742    60.8643425293    62.1063174656     0.0216765519     0.0001272500 25773.8026984913
   -0.8714285714     1.0581071761    60.6250754655    61.8660783708     0.0216595867     0.0001267669 25776.1353241687
   -0.8693877551     1.0539619319    60.3875704629    61.6275973282     0.0216425516     0.0001262953 25778.4491732145
   -0.8673469388     1.0498467020    60.1517851626    61.3908226139     0.0216252831     0.0001258340 25780.7446548824
   -0.8653061224     1.0457607758    59.9176788330    61.1557220078     0.0216079297     0.0001253833 25783.0221685665
   -0.8632653061     1.0417034691    59.6852122830    60.9222590251     0.0215905387     0.0001249430 25785.2821089683
   -0.8612244898     1.0376741234    59.4543477825    60.6903843340     0.0215729075     0.0001245121 25787.5248492736
   -0.8591836735     1.0336721045    59.2250489867    60.4600618288     0.0215550404     0.0001240901 25789.7507430565
   -0.8571428571     1.0296968008    58.9972808661    60.2312712013     0.0215371943     0.0001236779 25791.9601339049
   -0.8551020408     1.0257476230    58.7710096411    60.0039650777     0.0215191319     0.0001232741 25794.1533558468
   -0.8530612245     1.0218240020    58.5462027200    59.7781093219     0.0215008263     0.0001228785 25796.3307333303
   -0.8510204082     1.0179253889    58.3228286418    59.5536726435     0.0214822804     0.0001224908 25798.4925665636
   -0.8489795918     1.0140512533    58.1008570218    59.3306371123     0.0214637117     0.0001221116 25800.6391462657
   -0.8469387755     1.0102010827    57.8802585008    59.1089612714     0.0214449089     0.0001217397 25802.7707580813
   -0.8448979592     1.0063743820    57.6610046973    58.8886159840     0.0214258589     0.0001213751 25804.8876779478
   -0.8428571429     1.0025706719    57.4430681625    58.6695739305     0.0214065639     0.0001210174 25806.9901725431
   -0.8408163265     0.9987894889    57.2264223382    58.4518126229     0.0213870951     0.0001206667 25809.0784997063
   -0.8387755102     0.9950303845    57.0110415164    58.2353086397     0.0213674922     0.0001203229 25811.1529078850
   -0.8367346939     0.9912929239    56.7969008020    58.0200303781     0.0213476383     0.0001199854 25813.2136307233
   -0.8346938776     0.9875766864    56.5839760772    57.8059538239     0.0213275351     0.0001196542 25815.2608973531
   -0.8326530612     0.9838812640    56.3722439680    57.5930556950     0.0213071842     0.0001193289 25817.2949302071
   -0.8306122449     0.9802062611    56.1616818123    57.3813134108     0.0212865871     0.0001190094 25819.3159442495
   -0.8285714286     0.9765512941    55.9522676300    57.1707123551     0.0212658722     0.0001186960 25821.3241472971
   -0.8265306122     0.9729159908    55.7439800947    56.9612239095     0.0212449124     0.0001183881 25823.3197403235
   -0.8244897959     0.9692999900    55.5367985066    56.7528270058     0.0212237011     0.0001180855 25825.3029177463
   -0.8224489796     0.9657029407    55.3307027670    56.5455016180     0.0212022397     0.0001177882 25827.2738676584
   -0.8204081633     0.9621245024    55.1256733545    56.3392282905     0.0211805293     0.0001174958 25829.2327716065
   -0.8183673469     0.9585643440    54.9216913014    56.1339881157     0.0211585709     0.0001172084 25831.1798076652
   -0.8163265306     0.9550221437    54.7187381727    55.9297630135     0.0211363708     0.0001169258 25833.1151490963
   -0.8142857143     0.9514975886    54.5167960447    55.7265396529     0.0211140091     0.0001166482 25835.0389637432
   -0.8122448980     0.9479903746    54.3158474857    55.5242954327     0.0210913955     0.0001163751 25836.9514142438
   -0.8102040816     0.9445002057    54.1158755372    55.3230134536     0.0210685312     0.0001161064 25838.8526582333
   -0.8081632653     0.9410267938    53.9168636960    55.1226772678     0.0210454170     0.0001158420 25840.7428485364
   -0.8061224490     0.9375698586    53.7187958976    54.9232708623     0.0210220539     0.0001155818 25842.6221333508
   -0.8040816327     0.9341291270    53.5216564995    54.7247786432     0.0209984427     0.0001153257 25844.4906564215
   -0.8020408163     0.9307043332    53.3254302661    54.5271854210     0.0209745843     0.0001150736 25846.3485572071
   -0.8000000000     0.9272952180    53.1301023542    54.3304763958     0.0209504793     0.0001148253 25848.1959717560
   -0.7979591837     0.9239015290    52.9356582985    54.1346371441     0.0209261285     0.0001145809 25850.0330344738
   -0.7959183673     0.9205230201    52.7420839987    53.9396536051     0.0209015327     0.0001143402 25851.8598736913
   -0.7938775510     0.9171594514    52.5493657065    53.7455142134     0.0208767298     0.0001141033 25853.6766141670
   -0.7918367347     0.9138105888    52.3574900132    53.5522036423     0.0208516864     0.0001138699 25855.4833775172
   -0.7897959184     0.9104762040    52.1664438387    53.3597084319     0.0208263960     0.0001136399 25857.2802823223
   -0.7877551020     0.9071560743    51.9762144194    53.1680158640     0.0208008592     0.0001134133 25859.0674442292
   -0.7857142857     0.9038499823    51.7867892983    52.9771135257     0.0207750769     0.0001131901 25860.8449760486
   -0.7836734694     0.9005577156    51.5981563144    52.7869892991     0.0207490498     0.0001129700 25862.6129878491
   -0.7816326531     0.8972790671    51.4103035930    52.5976313515     0.0207227787     0.0001127530 25864.3715870461
   -0.7795918367     0.8940138344    51.2232195364    52.4090281269     0.0206962642     0.0001125392 25866.1208784879
   -0.7775510204     0.8907618196    51.0368928148    52.2211683363     0.0206695071     0.0001123283 25867.8609645382
   -0.7755102041     0.8875228296    50.8513123577    52.0340409495     0.0206425081     0.0001121204 25869.5919451546
   -0.7734693878     0.8842966755    50.6664673458    51.8476351873     0.0206152679     0.0001119154 25871.3139177469
   -0.7714285714     0.8810831728    50.4823472028    51.6619405131     0.0205877871     0.0001117132 25873.0269764266
   -0.7693877551     0.8778821410    50.2989415880    51.4769466255     0.0205600665     0.0001115137 25874.7312133881
   -0.7673469388     0.8746934035    50.1162403889    51.2926434516     0.0205321068     0.0001113170 25876.4267187067
   -0.7653061224     0.8715167878    49.9342337142    51.1090211392     0.0205039086     0.0001111228 25878.1135803335
   -0.7632653061     0.8683521249    49.7529118872    50.9260700509     0.0204754726     0.0001109313 25879.7918841604
   -0.7612244898     0.8651992496    49.5722654391    50.7437807573     0.0204467995     0.0001107423 25881.4617140814
   -0.7591836735     0.8620580001    49.3922851027    50.5621440306     0.0204178901     0.0001105558 25883.1231520525
   -0.7571428571     0.8589282182    49.2129618067    50.3811508392     0.0203887449     0.0001103717 25884.7762781490
   -0.7551020408     0.8558097488    49.0342866700    50.2007923416     0.0203593647     0.0001101899 25886.4211706202
   -0.7530612245     0.8527024401    48.8562509955    50.0210598808     0.0203297502     0.0001100106 25888.0579059430
   -0.7510204082     0.8496061434    48.6788462656    49.8419449792     0.0202999021     0.0001098334 25889.6865588723
   -0.7489795918     0.8465207132    48.5020641364    49.6634393336     0.0202698210     0.0001096586 25891.3072024907
   -0.7469387755     0.8434460067    48.3258964330    49.4855348097     0.0202395078     0.0001094859 25892.9199086264
   -0.7448979592     0.8403818842    48.1503351447    49.3082234381     0.0202089631     0.0001093154 25894.5247487772
   -0.7428571429     0.8373282086    47.9753724206    49.1314974091     0.0201781876     0.0001091470 25896.1217914542
   -0.7408163265     0.8342848456    47.8010005647    48.9553490686     0.0201471821     0.0001089806 25897.7111035553
   -0.7387755102     0.8312516635    47.6272120320    48.7797709133     0.0201159473     0.0001088163 25899.2927506049
   -0.7367346939     0.8282285332    47.4539994242    48.6047555875     0.0200844839     0.0001086540 25900.8667967901
   -0.7346938776     0.8252153280    47.2813554856    48.4302958781     0.0200527928     0.0001084937 25902.4333049971
   -0.7326530612     0.8222119238    47.1092730996    48.2563847116     0.0200208745     0.0001083352 25903.9923368447
   -0.7306122449     0.8192181987    46.9377452847    48.0830151498     0.0199887300     0.0001081786 25905.5439527180
   -0.7285714286     0.8162340331    46.7667651908    47.9101803865     0.0199563599     0.0001080239 25907.0882118001
   -0.7265306122     0.8132593097    46.5963260961    47.7378737438     0.0199237650     0.0001078710 25908.6251721032
   -0.7244897959     0.8102939134    46.4264214035    47.5660886692     0.0198909462     0.0001077199 25910.1548904985
   -0.7224489796     0.8073377312    46.2570446372    47.3948187317     0.0198579041     0.0001075705 25911.6774227451
   -0.7204081633     0.8043906520    46.0881894401    47.2240586644     0.0198246578     0.0001074229 25913.1928235179
   -0.7183673469     0.8014525670    45.9198495701    47.0538016383     0.0197911971     0.0001072770 25914.7011464348
   -0.7163265306     0.7985233692    45.7520188977    46.8840411855     0.0197575161     0.0001071328 25916.2024445550
   -0.7142857143     0.7956029535    45.5846914028    46.7147713298     0.0197236155     0.0001069902 25917.6967700743
   -0.7122448980     0.7926912167    45.4178611722    46.5459862023     0.0196894961     0.0001068492 25919.1841730478
   -0.7102040816     0.7897880574    45.2515223968    46.3776800384     0.0196551587     0.0001067097 25920.6647026119
   -0.7081632653     0.7868933760    45.0856693690    46.2098471757     0.0196206041     0.0001065718 25922.1384070369
   -0.7061224490     0.7840070746    44.9202964804    46.0424820510     0.0195858330     0.0001064355 25923.6053337471
   -0.7040816327     0.7811290570    44.7553982192    45.8755791983     0.0195508463     0.0001063006 25925.0655293406
   -0.7020408163     0.7782592286    44.5909691678    45.7091332461     0.0195156447     0.0001061672 25926.5190396084
   -0.7000000000     0.7753974966    44.4270040008    45.5431389154     0.0194802292     0.0001060352 25927.9659095530
   -0.6979591837     0.7725437695    44.2634974825    45.3775910173     0.0194446004     0.0001059046 25929.4061834060
