shape model output for Neptune's 1-bar isobaric surface. models are described in Mankovich et al. 2026, PSJ.
the models summarized in this file assume the symmetric Voyager wind profile from Tollefson et al. (2018, Icarus 311) Table 1.
the distribution of models in this file comes from Markov chain Monte Carlo fits to the Voyager 2 radio occultation reported in Lindal (1992, AJ 103).
these solutions vary the polar radius to fit the Voyager 2 radio occultation to a Gaussian with standard deviation 5 km.
the wind fit polynomial coefficients are also allowed to vary within their Gaussian uncertainties following T18 Table 1.
this model has wind polynomial cofficients a, b, c:    -3.968622e+02    2.060442e-01   -1.265173e-05
mu=sin(phi), phi [radians], and lat_deg [degrees] refer to planetocentric latitude; lat_pg_deg gives planetographic latitude in degrees.
              mu          phi_rad          lat_deg       lat_pg_deg          psi_rad    omega_rad_s-1             r_km 
   -1.0000000000     1.5707963268    90.0000000000    90.0000000000     0.0000000000     0.0001975188 24258.3623114817
   -0.9998144712     1.5515331758    88.8963027451    88.9989106172     0.0017908452     0.0001973299 24258.7811393589
   -0.9996289425     1.5435536961    88.4391122386    88.5839460387     0.0025278267     0.0001971361 24259.1991998923
   -0.9994434137     1.5374305386    88.0882811581    88.2653294962     0.0030900764     0.0001969430 24259.6164950123
   -0.9992578850     1.5322682374    87.7925030866    87.9965541502     0.0035613629     0.0001967504 24260.0330277357
   -0.9990723562     1.5277199472    87.5319052508    87.7596092709     0.0039741849     0.0001965578 24260.4488002055
   -0.9988868275     1.5236077873    87.2962958471    87.5452631071     0.0043452984     0.0001963664 24260.8638139729
   -0.9987012987     1.5198260904    87.0796205724    87.3480252724     0.0046845457     0.0001961735 24261.2780702064
   -0.9985157699     1.5163060092    86.8779347757    87.1643280476     0.0049985056     0.0001959814 24261.6915698149
   -0.9983302412     1.5129997231    86.6884985354    86.9916898661     0.0052916870     0.0001957897 24262.1043135225
   -0.9981447124     1.5098724146    86.5093169626    86.8283045231     0.0055673832     0.0001955983 24262.5163021115
   -0.9979591837     1.5068978001    86.3388841007    86.6728089998     0.0058280889     0.0001954072 24262.9275378364
   -0.9959183673     1.4804147767    84.8215186329    85.2840520743     0.0080727315     0.0001933196 24267.4018961024
   -0.9938775510     1.4600831244    83.6566007642    84.2114777140     0.0096844297     0.0001912594 24271.7875110726
   -0.9918367347     1.4429339318    82.6740244067    83.3016553851     0.0109542271     0.0001892264 24276.0864084837
   -0.9897959184     1.4278174270    81.8079124837    82.4953441416     0.0119979458     0.0001872205 24280.3006192568
   -0.9877551020     1.4141440401    81.0244851196    81.7622641489     0.0128766732     0.0001852423 24284.4320727230
   -0.9857142857     1.4015635991    80.3036789465    81.0844758654     0.0136274770     0.0001832903 24288.4826973715
   -0.9836734694     1.3898479862    79.6324237728    80.4503349162     0.0142752424     0.0001813642 24292.4544054158
   -0.9816326531     1.3788387766    79.0016425268    79.8517919134     0.0148379059     0.0001794655 24296.3490095152
   -0.9795918367     1.3684206412    78.4047273409    79.2829821628     0.0153284383     0.0001775917 24300.1683398581
   -0.9775510204     1.3585065303    77.8366906282    78.7395178363     0.0157573074     0.0001757444 24303.9141865830
   -0.9755102041     1.3490288258    77.2936581616    78.2179879843     0.0161325988     0.0001739226 24307.5882732309
   -0.9734693878     1.3399337634    76.7725494708    77.7156919806     0.0164609421     0.0001721263 24311.1923056994
   -0.9714285714     1.3311777582    76.2708673246    77.2304493849     0.0167478664     0.0001703553 24314.7279630451
   -0.9693877551     1.3227248956    75.7865539757    76.7604685231     0.0169980155     0.0001686095 24318.1968784982
   -0.9673469388     1.3145451659    75.3178899826    76.3042451843     0.0172151459     0.0001668877 24321.6006300812
   -0.9653061224     1.3066131882    74.8634211408    75.8585047134     0.0173674847     0.0001649926 24324.9392904750
   -0.9632653061     1.2989072697    74.4219045316    75.4204601239     0.0174280828     0.0001627675 24328.2009795059
   -0.9612244898     1.2914086960    73.9922679079    74.9942268547     0.0174874826     0.0001607053 24331.3862791266
   -0.9591836735     1.2841011890    73.5735785965    74.5789194347     0.0175465077     0.0001587914 24334.5013662020
   -0.9571428571     1.2769704845    73.1650193268    74.1736758577     0.0176043775     0.0001570052 24337.5515700843
   -0.9551020408     1.2700040004    72.7658691871    73.7777651084     0.0176609155     0.0001553322 24340.5416397627
   -0.9530612245     1.2631905710    72.3754884407    73.3905480372     0.0177161321     0.0001537608 24343.4756233611
   -0.9510204082     1.2565202341    71.9933062850    73.0114585663     0.0177701096     0.0001522813 24346.3572239588
   -0.9489795918     1.2499840563    71.6188108859    72.6399842622     0.0178228377     0.0001508849 24349.1897025879
   -0.9469387755     1.2435739909    71.2515411916    72.2756523631     0.0178741118     0.0001495629 24351.9759664099
   -0.9448979592     1.2372827589    70.8910801509    71.9180459024     0.0179239337     0.0001483087 24354.7186322074
   -0.9428571429     1.2311037506    70.5370490537    71.5667861526     0.0179723028     0.0001471164 24357.4200393033
   -0.9408163265     1.2250309424    70.1891027733    71.2215279675     0.0180192189     0.0001459808 24360.0823919664
   -0.9387755102     1.2190588266    69.8469257429    70.8819596844     0.0180647501     0.0001448976 24362.7076265394
   -0.9367346939     1.2131823517    69.5102285299    70.5477965505     0.0181089782     0.0001438629 24365.2974906170
   -0.9346938776     1.2073968710    69.1787449051    70.2187657275     0.0181517876     0.0001428726 24367.8536588033
   -0.9326530612     1.2016980990    68.8522293213    69.8946216196     0.0181931777     0.0001419232 24370.3776352889
   -0.9306122449     1.1960820730    68.5304547326    69.5751372990     0.0182331504     0.0001410118 24372.8707862044
   -0.9285714286     1.1905451201    68.2132107017    69.2601026029     0.0182717106     0.0001401356 24375.3343827257
   -0.9265306122     1.1850838286    67.9003017483    68.9493404675     0.0183091796     0.0001392937 24377.7696283871
   -0.9244897959     1.1796950225    67.5915459031    68.6426547576     0.0183453103     0.0001384826 24380.1776104618
   -0.9224489796     1.1743757395    67.2867734365    68.3398731007     0.0183800565     0.0001377001 24382.5593592283
   -0.9204081633     1.1691232113    66.9858257369    68.0408480015     0.0184136122     0.0001369450 24384.9158276776
   -0.9183673469     1.1639348463    66.6885543185    67.7454348581     0.0184460452     0.0001362161 24387.2479022321
   -0.9163265306     1.1588082142    66.3948199388    67.4534811757     0.0184771242     0.0001355106 24389.5564242243
   -0.9142857143     1.1537410325    66.1044918138    67.1648734826     0.0185071514     0.0001348284 24391.8421600925
   -0.9122448980     1.1487311539    65.8174469161    66.8794821781     0.0185360121     0.0001341676 24394.1058658865
   -0.9102040816     1.1437765557    65.5335693460    66.5971874220     0.0185636374     0.0001335266 24396.3482024343
   -0.9081632653     1.1388753294    65.2527497676    66.3178980092     0.0185903438     0.0001329058 24398.5698476685
   -0.9061224490     1.1340256726    64.9748848997    66.0414889750     0.0186157529     0.0001323022 24400.7714011254
   -0.9040816327     1.1292258803    64.6998770572    65.7678894263     0.0186403323     0.0001317169 24402.9534409845
   -0.9020408163     1.1244743380    64.4276337361    65.4969830282     0.0186636660     0.0001311473 24405.1165227199
   -0.9000000000     1.1197695150    64.1580672368    65.2287054337     0.0186861616     0.0001305941 24407.2611599905
   -0.8979591837     1.1151099586    63.8910943224    64.9629535832     0.0187074732     0.0001300550 24409.3878491040
   -0.8959183673     1.1104942885    63.6266359071    64.6996709383     0.0187279943     0.0001295309 24411.4970379231
   -0.8938775510     1.1059211919    63.3646167727    64.4387612067     0.0187473570     0.0001290196 24413.5891794838
   -0.8918367347     1.1013894190    63.1049653087    64.1801765270     0.0187659759     0.0001285221 24415.6647077086
   -0.8897959184     1.0968977787    62.8476132749    63.9238298872     0.0187835233     0.0001280364 24417.7240106086
   -0.8877551020     1.0924451350    62.5924955840    63.6696699377     0.0188002391     0.0001275628 24419.7674595243
   -0.8857142857     1.0880304035    62.3395501007    63.4176302622     0.0188160484     0.0001271006 24421.7954326877
   -0.8836734694     1.0836525480    62.0887174586    63.1676488926     0.0188309059     0.0001266489 24423.8082805385
   -0.8816326531     1.0793105778    61.8399408902    62.9196825247     0.0188450466     0.0001262083 24425.8063282570
   -0.8795918367     1.0750035447    61.5931660703    62.6736631637     0.0188582318     0.0001257772 24427.7898961626
   -0.8775510204     1.0707305406    61.3483409720    62.4295481440     0.0188706250     0.0001253559 24429.7592882870
   -0.8755102041     1.0664906953    61.1054157324    62.1872887937     0.0188822470     0.0001249441 24431.7147963118
   -0.8734693878     1.0622831742    60.8643425293    61.9468307213     0.0188929831     0.0001245408 24433.6567012644
   -0.8714285714     1.0581071761    60.6250754655    61.7081374396     0.0189029975     0.0001241463 24435.5852697592
   -0.8693877551     1.0539619319    60.3875704629    61.4711631449     0.0189122601     0.0001237602 24437.5007587002
   -0.8673469388     1.0498467020    60.1517851626    61.2358611945     0.0189206961     0.0001233818 24439.4034159152
   -0.8653061224     1.0457607758    59.9176788330    61.0021969095     0.0189284112     0.0001230112 24441.2934798722
   -0.8632653061     1.0417034691    59.6852122830    60.7701337499     0.0189354517     0.0001226482 24443.1711801665
   -0.8612244898     1.0376741234    59.4543477825    60.5396282213     0.0189417170     0.0001222921 24445.0367379761
   -0.8591836735     1.0336721045    59.2250489867    60.3106450748     0.0189472261     0.0001219428 24446.8903662065
   -0.8571428571     1.0296968008    58.9972808661    60.0831588718     0.0189521465     0.0001216006 24448.7322652739
   -0.8551020408     1.0257476230    58.7710096411    59.8571287398     0.0189563543     0.0001212647 24450.5626321516
   -0.8530612245     1.0218240020    58.5462027200    59.6325220252     0.0189598486     0.0001209350 24452.3816585228
   -0.8510204082     1.0179253889    58.3228286418    59.4093081824     0.0189626452     0.0001206111 24454.1895289088
   -0.8489795918     1.0140512533    58.1008570218    59.1874650163     0.0189648872     0.0001202935 24455.9864210154
   -0.8469387755     1.0102010827    57.8802585008    58.9669567578     0.0189664626     0.0001199816 24457.7725060582
   -0.8448979592     1.0063743820    57.6610046973    58.7477553025     0.0189673762     0.0001196750 24459.5479490685
   -0.8428571429     1.0025706719    57.4430681625    58.5298339780     0.0189676417     0.0001193736 24461.3129091810
   -0.8408163265     0.9987894889    57.2264223382    58.3131693426     0.0189673134     0.0001190776 24463.0675399095
   -0.8387755102     0.9950303845    57.0110415164    58.0977377275     0.0189664269     0.0001187867 24464.8119925437
   -0.8367346939     0.9912929239    56.7969008020    57.8835108472     0.0189649230     0.0001185007 24466.5464142087
   -0.8346938776     0.9875766864    56.5839760772    57.6704652511     0.0189628134     0.0001182193 24468.2709454516
   -0.8326530612     0.9838812640    56.3722439680    57.4585782054     0.0189601092     0.0001179425 24469.9857224907
   -0.8306122449     0.9802062611    56.1616818123    57.2478276622     0.0189568212     0.0001176701 24471.6908773972
   -0.8285714286     0.9765512941    55.9522676300    57.0381966642     0.0189530371     0.0001174023 24473.3865382665
   -0.8265306122     0.9729159908    55.7439800947    56.8296599973     0.0189486889     0.0001171387 24475.0728293811
   -0.8244897959     0.9692999900    55.5367985066    56.6221972481     0.0189437817     0.0001168793 24476.7498713637
   -0.8224489796     0.9657029407    55.3307027670    56.4157888556     0.0189383249     0.0001166237 24478.4177813242
   -0.8204081633     0.9621245024    55.1256733545    56.2104158162     0.0189323275     0.0001163721 24480.0766729975
   -0.8183673469     0.9585643440    54.9216913014    56.0060596619     0.0189257982     0.0001161243 24481.7266568750
   -0.8163265306     0.9550221437    54.7187381727    55.8027026242     0.0189187487     0.0001158801 24483.3678403299
   -0.8142857143     0.9514975886    54.5167960447    55.6003300484     0.0189112359     0.0001156398 24485.0003275020
   -0.8122448980     0.9479903746    54.3158474857    55.3989217452     0.0189032119     0.0001154030 24486.6242196889
   -0.8102040816     0.9445002057    54.1158755372    55.1984612001     0.0188946843     0.0001151695 24488.2396168099
   -0.8081632653     0.9410267938    53.9168636960    54.9989323392     0.0188856606     0.0001149395 24489.8466160887
   -0.8061224490     0.9375698586    53.7187958976    54.8003195134     0.0188761480     0.0001147127 24491.4453120562
   -0.8040816327     0.9341291270    53.5216564995    54.6026074825     0.0188661537     0.0001144890 24493.0357966485
   -0.8020408163     0.9307043332    53.3254302661    54.4057814009     0.0188556844     0.0001142685 24494.6181593002
   -0.8000000000     0.9272952180    53.1301023542    54.2098268033     0.0188447467     0.0001140510 24496.1924870340
   -0.7979591837     0.9239015290    52.9356582985    54.0147295911     0.0188333469     0.0001138365 24497.7588645449
   -0.7959183673     0.9205230201    52.7420839987    53.8204760200     0.0188214914     0.0001136249 24499.3173742820
   -0.7938775510     0.9171594514    52.5493657065    53.6270540377     0.0188092097     0.0001134163 24500.8680965257
   -0.7918367347     0.9138105888    52.3574900132    53.4344493458     0.0187964863     0.0001132104 24502.4111094616
   -0.7897959184     0.9104762040    52.1664438387    53.2426489290     0.0187833223     0.0001130073 24503.9464892520
   -0.7877551020     0.9071560743    51.9762144194    53.0516403473     0.0187697233     0.0001128068 24505.4743101027
   -0.7857142857     0.9038499823    51.7867892983    52.8614114584     0.0187556949     0.0001126089 24506.9946442055
   -0.7836734694     0.9005577156    51.5981563144    52.6719504078     0.0187412424     0.0001124135 24508.5075626803
   -0.7816326531     0.8972790671    51.4103035930    52.4832456193     0.0187263710     0.0001122207 24510.0131360051
   -0.7795918367     0.8940138344    51.2232195364    52.2952857861     0.0187110859     0.0001120303 24511.5114329382
   -0.7775510204     0.8907618196    51.0368928148    52.1080598620     0.0186953918     0.0001118422 24513.0025205425
   -0.7755102041     0.8875228296    50.8513123577    51.9215570531     0.0186792937     0.0001116565 24514.4864642390
   -0.7734693878     0.8842966755    50.6664673458    51.7357668097     0.0186627963     0.0001114731 24515.9633278584
   -0.7714285714     0.8810831728    50.4823472028    51.5506788192     0.0186459042     0.0001112920 24517.4331736900
   -0.7693877551     0.8778821410    50.2989415880    51.3662829978     0.0186286218     0.0001111130 24518.8960625297
   -0.7673469388     0.8746934035    50.1162403889    51.1825694845     0.0186109536     0.0001109362 24520.3520537246
   -0.7653061224     0.8715167878    49.9342337142    50.9995286335     0.0185929038     0.0001107616 24521.8012052174
   -0.7632653061     0.8683521249    49.7529118872    50.8171510080     0.0185744767     0.0001105890 24523.2435735881
   -0.7612244898     0.8651992496    49.5722654391    50.6354273740     0.0185556762     0.0001104184 24524.6792140942
   -0.7591836735     0.8620580001    49.3922851027    50.4543486942     0.0185365065     0.0001102499 24526.1081807096
   -0.7571428571     0.8589282182    49.2129618067    50.2739061221     0.0185169715     0.0001100833 24527.5305261620
   -0.7551020408     0.8558097488    49.0342866700    50.0940909966     0.0184970749     0.0001099186 24528.9463028036
   -0.7530612245     0.8527024401    48.8562509955    49.9148948365     0.0184768206     0.0001097558 24530.3555626074
   -0.7510204082     0.8496061434    48.6788462656    49.7363093353     0.0184562123     0.0001095948 24531.7583558337
   -0.7489795918     0.8465207132    48.5020641364    49.5583263562     0.0184352535     0.0001094357 24533.1547317265
   -0.7469387755     0.8434460067    48.3258964330    49.3809379275     0.0184139478     0.0001092784 24534.5447385425
   -0.7448979592     0.8403818842    48.1503351447    49.2041362376     0.0183922987     0.0001091228 24535.9284235780
   -0.7428571429     0.8373282086    47.9753724206    49.0279136307     0.0183703096     0.0001089689 24537.3058331940
   -0.7408163265     0.8342848456    47.8010005647    48.8522626027     0.0183479839     0.0001088167 24538.6770128413
   -0.7387755102     0.8312516635    47.6272120320    48.6771757965     0.0183253247     0.0001086662 24540.0420070838
   -0.7367346939     0.8282285332    47.4539994242    48.5026459986     0.0183023354     0.0001085173 24541.4008596222
   -0.7346938776     0.8252153280    47.2813554856    48.3286661349     0.0182790191     0.0001083701 24542.7536133154
   -0.7326530612     0.8222119238    47.1092730996    48.1552292667     0.0182553789     0.0001082243 24544.1003102025
   -0.7306122449     0.8192181987    46.9377452847    47.9823285877     0.0182314179     0.0001080802 24545.4409915236
   -0.7285714286     0.8162340331    46.7667651908    47.8099574200     0.0182071391     0.0001079375 24546.7756977392
   -0.7265306122     0.8132593097    46.5963260961    47.6381092109     0.0181825454     0.0001077964 24548.1044685101
   -0.7244897959     0.8102939134    46.4264214035    47.4667775295     0.0181576398     0.0001076567 24549.4273425513
   -0.7224489796     0.8073377312    46.2570446372    47.2959560640     0.0181324250     0.0001075185 24550.7443581116
   -0.7204081633     0.8043906520    46.0881894401    47.1256393213     0.0181069163     0.0001073817 24552.0555527964
   -0.7183673469     0.8014525670    45.9198495701    46.9558207954     0.0180811088     0.0001072464 24553.3609635351
   -0.7163265306     0.7985233692    45.7520188977    46.7864942546     0.0180550010     0.0001071124 24554.6606265959
   -0.7142857143     0.7956029535    45.5846914028    46.6176538309     0.0180285954     0.0001069798 24555.9545776027
   -0.7122448980     0.7926912167    45.4178611722    46.4492937608     0.0180018947     0.0001068485 24557.2428515492
   -0.7102040816     0.7897880574    45.2515223968    46.2814083829     0.0179749014     0.0001067186 24558.5254828140
   -0.7081632653     0.7868933760    45.0856693690    46.1139921348     0.0179476180     0.0001065899 24559.8025051747
   -0.7061224490     0.7840070746    44.9202964804    45.9470395513     0.0179200472     0.0001064625 24561.0739518215
   -0.7040816327     0.7811290570    44.7553982192    45.7805452617     0.0178921912     0.0001063363 24562.3398553709
   -0.7020408163     0.7782592286    44.5909691678    45.6145039876     0.0178640526     0.0001062114 24563.6002478781
   -0.7000000000     0.7753974966    44.4270040008    45.4489105407     0.0178356338     0.0001060877 24564.8551608500
   -0.6979591837     0.7725437695    44.2634974825    45.2837598206     0.0178069370     0.0001059651 24566.1046252572
