shape model output for Neptune's 1-bar isobaric surface. models are described in Mankovich et al. 2026, PSJ.
the models summarized in this file assume the symmetric Voyager wind profile from Tollefson et al. (2018, Icarus 311) Table 1.
the distribution of models in this file comes from Markov chain Monte Carlo fits to the Voyager 2 radio occultation reported in Lindal (1992, AJ 103).
these solutions vary the polar radius to fit the Voyager 2 radio occultation to a Gaussian with standard deviation 5 km.
the wind fit polynomial coefficients are also allowed to vary within their Gaussian uncertainties following T18 Table 1.
this model has wind polynomial cofficients a, b, c:    -3.992120e+02    2.280399e-01   -1.453466e-05
mu=sin(phi), phi [radians], and lat_deg [degrees] refer to planetocentric latitude; lat_pg_deg gives planetographic latitude in degrees.
              mu          phi_rad          lat_deg       lat_pg_deg          psi_rad    omega_rad_s-1             r_km 
   -1.0000000000     1.5707963268    90.0000000000    90.0000000000     0.0000000000     0.0002127505 24233.7000814093
   -0.9998144712     1.5515331758    88.8963027451    89.0131291920     0.0020390062     0.0002125293 24234.1765063652
   -0.9996289425     1.5435536961    88.4391122386    88.6039879343     0.0028776237     0.0002123024 24234.6519802719
   -0.9994434137     1.5374305386    88.0882811581    88.2897950179     0.0035170803     0.0002120763 24235.1265009442
   -0.9992578850     1.5322682374    87.7925030866    88.0247117034     0.0040528049     0.0002118509 24235.6000728614
   -0.9990723562     1.5277199472    87.5319052508    87.7909867453     0.0045218251     0.0002116254 24236.0726996088
   -0.9988868275     1.5236077873    87.2962958471    87.5795227478     0.0049432419     0.0002114013 24236.5443839013
   -0.9987012987     1.5198260904    87.0796205724    87.3849074784     0.0053282617     0.0002111755 24237.0151278421
   -0.9985157699     1.5163060092    86.8779347757    87.2036265704     0.0056843942     0.0002109505 24237.4849331033
   -0.9983302412     1.5129997231    86.6884985354    87.0332346195     0.0060167797     0.0002107261 24237.9538010638
   -0.9981447124     1.5098724146    86.5093169626    86.8719518934     0.0063291735     0.0002105020 24238.4217349980
   -0.9979591837     1.5068978001    86.3388841007    86.7184354821     0.0066244213     0.0002102782 24238.8887368181
   -0.9959183673     1.4804147767    84.8215186329    85.3462598329     0.0091584617     0.0002078341 24243.9647429742
   -0.9938775510     1.4600831244    83.6566007642    84.2849067870     0.0109660088     0.0002054220 24248.9307751273
   -0.9918367347     1.4429339318    82.6740244067    83.3833473123     0.0123800202     0.0002030418 24253.7894219668
   -0.9897959184     1.4278174270    81.8079124837    82.5833147169     0.0135333220     0.0002006933 24258.5432741816
   -0.9877551020     1.4141440401    81.0244851196    81.8550530226     0.0144961446     0.0001983772 24263.1948105402
   -0.9857142857     1.4015635991    80.3036789465    81.1809450901     0.0153111826     0.0001960918 24267.7465339013
   -0.9836734694     1.3898479862    79.6324237728    80.5495671762     0.0160071721     0.0001938368 24272.2008422425
   -0.9816326531     1.3788387766    79.0016425268    79.9530324774     0.0166048871     0.0001916137 24276.5600958221
   -0.9795918367     1.3684206412    78.4047273409    79.3855934352     0.0171193429     0.0001894200 24280.8266253773
   -0.9775510204     1.3585065303    77.8366906282    78.8429602553     0.0175627182     0.0001872571 24285.0026949225
   -0.9755102041     1.3490288258    77.2936581616    78.3217974701     0.0179444161     0.0001851242 24289.0905342687
   -0.9734693878     1.3399337634    76.7725494708    77.8194672714     0.0182721626     0.0001830210 24293.0923209928
   -0.9714285714     1.3311777582    76.2708673246    77.3338422691     0.0185524126     0.0001809476 24297.0101901219
   -0.9693877551     1.3227248956    75.7865539757    76.8631756752     0.0187905935     0.0001789036 24300.8462224936
   -0.9673469388     1.3145451659    75.3178899826    76.4059990389     0.0189910857     0.0001768877 24304.6024483662
   -0.9653061224     1.3066131882    74.8634211408    75.9589408838     0.0191204265     0.0001747013 24308.2793700689
   -0.9632653061     1.2989072697    74.4219045316    75.5192530899     0.0191523454     0.0001721969 24311.8646240226
   -0.9612244898     1.2914086960    73.9922679079    75.0914583375     0.0191844921     0.0001698753 24315.3597391876
   -0.9591836735     1.2841011890    73.5735785965    74.6746718400     0.0192177025     0.0001677199 24318.7721577521
   -0.9571428571     1.2769704845    73.1650193268    74.2680165502     0.0192509332     0.0001657079 24322.1081914096
   -0.9551020408     1.2700040004    72.7658691871    73.8707536542     0.0192838718     0.0001638229 24325.3734529788
   -0.9530612245     1.2631905710    72.3754884407    73.4822388847     0.0193164392     0.0001620520 24328.5728482683
   -0.9510204082     1.2565202341    71.9933062850    73.1019023812     0.0193486520     0.0001603842 24331.7107428988
   -0.9489795918     1.2499840563    71.6188108859    72.7292274844     0.0193804257     0.0001588097 24334.7910043437
   -0.9469387755     1.2435739909    71.2515411916    72.3637356782     0.0194114557     0.0001573188 24337.8171042920
   -0.9448979592     1.2372827589    70.8910801509    72.0050067344     0.0194416865     0.0001559041 24340.7921615419
   -0.9428571429     1.2311037506    70.5370490537    71.6526589740     0.0194710663     0.0001545588 24343.7189909125
   -0.9408163265     1.2250309424    70.1891027733    71.3063445739     0.0194995480     0.0001532773 24346.6001540577
   -0.9387755102     1.2190588266    69.8469257429    70.9657501349     0.0195271694     0.0001520545 24349.4379492388
   -0.9367346939     1.2131823517    69.5102285299    70.6305895203     0.0195539881     0.0001508864 24352.2345272813
   -0.9346938776     1.2073968710    69.1787449051    70.3005867065     0.0195798331     0.0001497681 24354.9918003627
   -0.9326530612     1.2016980990    68.8522293213    69.9754942467     0.0196046713     0.0001486958 24357.7115838409
   -0.9306122449     1.1960820730    68.5304547326    69.6550835379     0.0196284755     0.0001476662 24360.3955000786
   -0.9285714286     1.1905451201    68.2132107017    69.3391429056     0.0196512241     0.0001466762 24363.0450774000
   -0.9265306122     1.1850838286    67.9003017483    69.0274970237     0.0196732689     0.0001457247 24365.6617075569
   -0.9244897959     1.1796950225    67.5915459031    68.7199459617     0.0196942963     0.0001448079 24368.2467051162
   -0.9224489796     1.1743757395    67.2867734365    68.4163156499     0.0197142307     0.0001439232 24370.8012758262
   -0.9204081633     1.1691232113    66.9858257369    68.1164593501     0.0197332792     0.0001430695 24373.3265446287
   -0.9183673469     1.1639348463    66.6885543185    67.8202320441     0.0197515024     0.0001422451 24375.8235730383
   -0.9163265306     1.1588082142    66.3948199388    67.5274779582     0.0197686117     0.0001414470 24378.2933616467
   -0.9142857143     1.1537410325    66.1044918138    67.2380856389     0.0197849446     0.0001406752 24380.7368233195
   -0.9122448980     1.1487311539    65.8174469161    66.9519234723     0.0198003512     0.0001399275 24383.1548173912
   -0.9102040816     1.1437765557    65.5335693460    66.6688701214     0.0198147365     0.0001392022 24385.5481629669
   -0.9081632653     1.1388753294    65.2527497676    66.3888366782     0.0198284572     0.0001384994 24387.9176388454
   -0.9061224490     1.1340256726    64.9748848997    66.1116937644     0.0198410577     0.0001378161 24390.2639842203
   -0.9040816327     1.1292258803    64.6998770572    65.8373743282     0.0198530726     0.0001371535 24392.5878688969
   -0.9020408163     1.1244743380    64.4276337361    65.5657573476     0.0198640043     0.0001365084 24394.8899403822
   -0.9000000000     1.1197695150    64.1580672368    65.2967817969     0.0198743183     0.0001358818 24397.1708152576
   -0.8979591837     1.1151099586    63.8910943224    65.0303406882     0.0198836001     0.0001352711 24399.4310713058
   -0.8959183673     1.1104942885    63.6266359071    64.7663807177     0.0198922996     0.0001346774 24401.6712515466
   -0.8938775510     1.1059211919    63.3646167727    64.5048015258     0.0198999780     0.0001340981 24403.8918877207
   -0.8918367347     1.1013894190    63.1049653087    64.2455587271     0.0199071106     0.0001335343 24406.0934803642
   -0.8897959184     1.0968977787    62.8476132749    63.9885616893     0.0199133064     0.0001329837 24408.2765012351
   -0.8877551020     1.0924451350    62.5924955840    63.7337609048     0.0199188375     0.0001324469 24410.4414005806
   -0.8857142857     1.0880304035    62.3395501007    63.4810888051     0.0199236089     0.0001319229 24412.5886084883
   -0.8836734694     1.0836525480    62.0887174586    63.2304825762     0.0199275606     0.0001314107 24414.7185361308
   -0.8816326531     1.0793105778    61.8399408902    62.9819007558     0.0199309596     0.0001309110 24416.8315769121
   -0.8795918367     1.0750035447    61.5931660703    62.7352726994     0.0199335211     0.0001304221 24418.9281075207
   -0.8775510204     1.0707305406    61.3483409720    62.4905569335     0.0199354293     0.0001299442 24421.0084880298
   -0.8755102041     1.0664906953    61.1054157324    62.2477046341     0.0199367023     0.0001294770 24423.0730625624
   -0.8734693878     1.0622831742    60.8643425293    62.0066599919     0.0199372008     0.0001290194 24425.1221611183
   -0.8714285714     1.0581071761    60.6250754655    61.7673877553     0.0199371105     0.0001285717 24427.1561002598
   -0.8693877551     1.0539619319    60.3875704629    61.5298415279     0.0199363910     0.0001281335 24429.1751838544
   -0.8673469388     1.0498467020    60.1517851626    61.2939736684     0.0199349501     0.0001277040 24431.1797037646
   -0.8653061224     1.0457607758    59.9176788330    61.0597502119     0.0199329059     0.0001272832 24433.1699404907
   -0.8632653061     1.0417034691    59.6852122830    60.8271347800     0.0199303074     0.0001268711 24435.1461637705
   -0.8612244898     1.0376741234    59.4543477825    60.5960826708     0.0199270330     0.0001264668 24437.1086331378
   -0.8591836735     1.0336721045    59.2250489867    60.3665585648     0.0199231006     0.0001260701 24439.0575984444
   -0.8571428571     1.0296968008    58.9972808661    60.1385383498     0.0199187007     0.0001256815 24440.9933029873
   -0.8551020408     1.0257476230    58.7710096411    59.9119797582     0.0199136852     0.0001253000 24442.9159813054
   -0.8530612245     1.0218240020    58.5462027200    59.6868499012     0.0199080489     0.0001249254 24444.8258567095
   -0.8510204082     1.0179253889    58.3228286418    59.4631181657     0.0199018066     0.0001245575 24446.7231449715
   -0.8489795918     1.0140512533    58.1008570218    59.2407634790     0.0198951208     0.0001241966 24448.6080546813
   -0.8469387755     1.0102010827    57.8802585008    59.0197488239     0.0198878579     0.0001238421 24450.4807875793
   -0.8448979592     1.0063743820    57.6610046973    58.8000459450     0.0198800201     0.0001234937 24452.3415388688
   -0.8428571429     1.0025706719    57.4430681625    58.5816281065     0.0198716198     0.0001231512 24454.1904975110
   -0.8408163265     0.9987894889    57.2264223382    58.3644721882     0.0198627169     0.0001228146 24456.0278465016
   -0.8387755102     0.9950303845    57.0110415164    58.1485546722     0.0198533499     0.0001224840 24457.8537631332
   -0.8367346939     0.9912929239    56.7969008020    57.9338465505     0.0198434467     0.0001221588 24459.6684188400
   -0.8346938776     0.9875766864    56.5839760772    57.7203243134     0.0198330182     0.0001218388 24461.4719779789
   -0.8326530612     0.9838812640    56.3722439680    57.5079651684     0.0198220743     0.0001215240 24463.2646008346
   -0.8306122449     0.9802062611    56.1616818123    57.2967470095     0.0198106249     0.0001212142 24465.0464431328
   -0.8285714286     0.9765512941    55.9522676300    57.0866535358     0.0197987690     0.0001209096 24466.8176560634
   -0.8265306122     0.9729159908    55.7439800947    56.8776587573     0.0197864253     0.0001206098 24468.5783864654
   -0.8244897959     0.9692999900    55.5367985066    56.6697421628     0.0197735970     0.0001203146 24470.3287770006
   -0.8224489796     0.9657029407    55.3307027670    56.4628841379     0.0197602927     0.0001200239 24472.0689663195
   -0.8204081633     0.9621245024    55.1256733545    56.2570656263     0.0197465203     0.0001197376 24473.7990892179
   -0.8183673469     0.9585643440    54.9216913014    56.0522681079     0.0197322877     0.0001194556 24475.5192767863
   -0.8163265306     0.9550221437    54.7187381727    55.8484737923     0.0197176062     0.0001191777 24477.2296565516
   -0.8142857143     0.9514975886    54.5167960447    55.6456684228     0.0197025398     0.0001189042 24478.9303526116
   -0.8122448980     0.9479903746    54.3158474857    55.4438312461     0.0196870305     0.0001186346 24480.6214855443
   -0.8102040816     0.9445002057    54.1158755372    55.2429456996     0.0196710852     0.0001183689 24482.3031702368
   -0.8081632653     0.9410267938    53.9168636960    55.0429956623     0.0196547106     0.0001181070 24483.9755199805
   -0.8061224490     0.9375698586    53.7187958976    54.8439654386     0.0196379131     0.0001178487 24485.6386457014
   -0.8040816327     0.9341291270    53.5216564995    54.6458397427     0.0196206990     0.0001175941 24487.2926553548
   -0.8020408163     0.9307043332    53.3254302661    54.4486036837     0.0196030742     0.0001173430 24488.9376540325
   -0.8000000000     0.9272952180    53.1301023542    54.2522427520     0.0195850446     0.0001170953 24490.5737440642
   -0.7979591837     0.9239015290    52.9356582985    54.0567428052     0.0195666158     0.0001168510 24492.2010251145
   -0.7959183673     0.9205230201    52.7420839987    53.8620900561     0.0195477933     0.0001166100 24493.8195942755
   -0.7938775510     0.9171594514    52.5493657065    53.6682726246     0.0195286097     0.0001163723 24495.4295461558
   -0.7918367347     0.9138105888    52.3574900132    53.4752759756     0.0195090454     0.0001161378 24497.0309729644
   -0.7897959184     0.9104762040    52.1664438387    53.2830870113     0.0194890999     0.0001159063 24498.6239645921
   -0.7877551020     0.9071560743    51.9762144194    53.0916932524     0.0194687784     0.0001156779 24500.2086086969
   -0.7857142857     0.9038499823    51.7867892983    52.9010825181     0.0194480855     0.0001154524 24501.7849916998
   -0.7836734694     0.9005577156    51.5981563144    52.7112429159     0.0194270261     0.0001152298 24503.3531981180
   -0.7816326531     0.8972790671    51.4103035930    52.5221628321     0.0194056045     0.0001150100 24504.9133100594
   -0.7795918367     0.8940138344    51.2232195364    52.3338309231     0.0193838254     0.0001147929 24506.4654077331
   -0.7775510204     0.8907618196    51.0368928148    52.1462361063     0.0193616930     0.0001145786 24508.0095695096
   -0.7755102041     0.8875228296    50.8513123577    51.9593675523     0.0193392114     0.0001143669 24509.5458719778
   -0.7734693878     0.8842966755    50.6664673458    51.7732146765     0.0193163849     0.0001141578 24511.0743899998
   -0.7714285714     0.8810831728    50.4823472028    51.5877671315     0.0192932174     0.0001139513 24512.5951967642
   -0.7693877551     0.8778821410    50.2989415880    51.4030148001     0.0192697127     0.0001137473 24514.1083638360
   -0.7673469388     0.8746934035    50.1162403889    51.2189477876     0.0192458748     0.0001135457 24515.6139612059
   -0.7653061224     0.8715167878    49.9342337142    51.0355564157     0.0192217073     0.0001133465 24517.1120573367
   -0.7632653061     0.8683521249    49.7529118872    50.8528312154     0.0191972138     0.0001131497 24518.6027192087
   -0.7612244898     0.8651992496    49.5722654391    50.6707629212     0.0191723979     0.0001129551 24520.0860123624
   -0.7591836735     0.8620580001    49.3922851027    50.4893424646     0.0191472630     0.0001127629 24521.5620009404
   -0.7571428571     0.8589282182    49.2129618067    50.3085609686     0.0191218127     0.0001125728 24523.0307477278
   -0.7551020408     0.8558097488    49.0342866700    50.1284097421     0.0190960500     0.0001123850 24524.4923141900
   -0.7530612245     0.8527024401    48.8562509955    49.9488802741     0.0190699784     0.0001121992 24525.9467605107
   -0.7510204082     0.8496061434    48.6788462656    49.7699642292     0.0190436010     0.0001120156 24527.3941456269
   -0.7489795918     0.8465207132    48.5020641364    49.5916534420     0.0190169209     0.0001118341 24528.8345272641
   -0.7469387755     0.8434460067    48.3258964330    49.4139399126     0.0189899411     0.0001116545 24530.2679619986
   -0.7448979592     0.8403818842    48.1503351447    49.2368158019     0.0189626647     0.0001114770 24531.6945056574
   -0.7428571429     0.8373282086    47.9753724206    49.0602734269     0.0189350946     0.0001113014 24533.1142128810
   -0.7408163265     0.8342848456    47.8010005647    48.8843052566     0.0189072337     0.0001111277 24534.5271371585
   -0.7387755102     0.8312516635    47.6272120320    48.7089039080     0.0188790847     0.0001109559 24535.9333309372
   -0.7367346939     0.8282285332    47.4539994242    48.5340621416     0.0188506505     0.0001107860 24537.3328456501
   -0.7346938776     0.8252153280    47.2813554856    48.3597728577     0.0188219339     0.0001106178 24538.7257317416
   -0.7326530612     0.8222119238    47.1092730996    48.1860290929     0.0187929373     0.0001104515 24540.1120386939
   -0.7306122449     0.8192181987    46.9377452847    48.0128240162     0.0187636636     0.0001102869 24541.4918150504
   -0.7285714286     0.8162340331    46.7667651908    47.8401509256     0.0187341152     0.0001101241 24542.8651084407
   -0.7265306122     0.8132593097    46.5963260961    47.6680032445     0.0187042948     0.0001099629 24544.2319656027
   -0.7244897959     0.8102939134    46.4264214035    47.4963745187     0.0186742047     0.0001098034 24545.5924324052
   -0.7224489796     0.8073377312    46.2570446372    47.3252584133     0.0186438475     0.0001096455 24546.9465538692
   -0.7204081633     0.8043906520    46.0881894401    47.1546495220     0.0186132398     0.0001094894 24548.2943741890
   -0.7183673469     0.8014525670    45.9198495701    46.9845412506     0.0185823753     0.0001093348 24549.6359367520
   -0.7163265306     0.7985233692    45.7520188977    46.8149273054     0.0185512514     0.0001091818 24550.9712841585
   -0.7142857143     0.7956029535    45.5846914028    46.6458017966     0.0185198701     0.0001090303 24552.3004582404
   -0.7122448980     0.7926912167    45.4178611722    46.4771589392     0.0184882338     0.0001088804 24553.6235000794
   -0.7102040816     0.7897880574    45.2515223968    46.3089930507     0.0184563447     0.0001087319 24554.9404500247
   -0.7081632653     0.7868933760    45.0856693690    46.1412985479     0.0184242049     0.0001085849 24556.2513477106
   -0.7061224490     0.7840070746    44.9202964804    45.9740699451     0.0183918165     0.0001084393 24557.5562320725
   -0.7040816327     0.7811290570    44.7553982192    45.8073018515     0.0183591818     0.0001082952 24558.8551413635
   -0.7020408163     0.7782592286    44.5909691678    45.6409889689     0.0183263027     0.0001081524 24560.1481134555
   -0.7000000000     0.7753974966    44.4270040008    45.4751260895     0.0182931814     0.0001080111 24561.4351856800
   -0.6979591837     0.7725437695    44.2634974825    45.3097080936     0.0182598198     0.0001078710 24562.7163945155
