shape model output for Uranus's 1-bar isobaric surface. models are described in Mankovich et al. 2026, PSJ.
this model assumes the symmetric wind profile from Sromovsky et al. (2015, Icarus 258) Equation 2.
these solutions vary the polar radius to fit the pair of Voyager 2 occultations reported in Lindal et al. 1987 to a Gaussian standard deviation of 5 km.
mu=sin(phi), phi [radians], and lat_deg [degrees] refer to planetocentric latitude; lat_pg_deg gives planetographic latitude in degrees.
              mu          phi_rad          lat_deg       lat_pg_deg          psi_rad    omega_rad_s-1             r_km 
   -1.0000000000     1.5707963268    90.0000000000    90.0000000000     0.0000000000     0.0001210982 24965.3203026580
   -0.9998144712     1.5515331758    88.8963027451    88.9521158008     0.0009741216     0.0001211047 24965.5545485976
   -0.9996289425     1.5435536961    88.4391122386    88.5180345135     0.0013774535     0.0001211110 24965.7887788265
   -0.9994434137     1.5374305386    88.0882811581    88.1849292257     0.0016868270     0.0001211172 24966.0229975311
   -0.9992578850     1.5322682374    87.7925030866    87.9040890836     0.0019475430     0.0001211232 24966.2572034165
   -0.9990723562     1.5277199472    87.5319052508    87.6566468079     0.0021771509     0.0001211292 24966.4913951587
   -0.9988868275     1.5236077873    87.2962958471    87.4329262585     0.0023846505     0.0001211349 24966.7255716744
   -0.9987012987     1.5198260904    87.0796205724    87.2271796234     0.0025753913     0.0001211406 24966.9597320832
   -0.9985157699     1.5163060092    86.8779347757    87.0356618043     0.0027528560     0.0001211462 24967.1938756583
   -0.9983302412     1.5129997231    86.6884985354    86.8557715731     0.0029194653     0.0001211516 24967.4280017883
   -0.9981447124     1.5098724146    86.5093169626    86.6856150251     0.0030769817     0.0001211569 24967.6621099509
   -0.9979591837     1.5068978001    86.3388841007    86.5237624403     0.0032267357     0.0001211621 24967.8961996932
   -0.9959183673     1.4804147767    84.8215186329    85.0825670731     0.0045561548     0.0001212115 24970.4698818871
   -0.9938775510     1.4600831244    83.6566007642    83.9757645214     0.0055704584     0.0001212484 24973.0409058253
   -0.9918367347     1.4429339318    82.6740244067    83.0418700816     0.0064201182     0.0001212743 24975.6088754127
   -0.9897959184     1.4278174270    81.8079124837    82.2183505324     0.0071634953     0.0001212908 24978.1734365394
   -0.9877551020     1.4141440401    81.0244851196    81.4731450482     0.0078305930     0.0001212991 24980.7342840908
   -0.9857142857     1.4015635991    80.3036789465    80.7872145897     0.0084392890     0.0001213006 24983.2911631223
   -0.9836734694     1.3898479862    79.6324237728    80.1481596889     0.0090012898     0.0001212963 24985.8438657545
   -0.9816326531     1.3788387766    79.0016425268    79.5473725512     0.0095247858     0.0001212873 24988.3922044312
   -0.9795918367     1.3684206412    78.4047273409    78.9785882994     0.0100157632     0.0001212745 24990.9360250885
   -0.9775510204     1.3585065303    77.8366906282    78.4370815896     0.0104787991     0.0001212588 24993.4752168196
   -0.9755102041     1.3490288258    77.2936581616    77.9191830916     0.0109174696     0.0001212408 24996.0096973449
   -0.9734693878     1.3399337634    76.7725494708    77.4219769686     0.0113346481     0.0001212213 24998.5394040180
   -0.9714285714     1.3311777582    76.2708673246    76.9431008381     0.0117326882     0.0001212009 25001.0642880479
   -0.9693877551     1.3227248956    75.7865539757    76.4806090889     0.0121135469     0.0001211800 25003.5843149136
   -0.9673469388     1.3145451659    75.3178899826    76.0328767314     0.0124788729     0.0001211592 25006.0994784598
   -0.9653061224     1.3066131882    74.8634211408    75.5985305157     0.0128300790     0.0001211387 25008.6097778415
   -0.9632653061     1.2989072697    74.4219045316    75.1763970386     0.0131683784     0.0001211190 25011.1152265983
   -0.9612244898     1.2914086960    73.9922679079    74.7654642951     0.0134948227     0.0001211002 25013.6158502460
   -0.9591836735     1.2841011890    73.5735785965    74.3648528303     0.0138103407     0.0001210828 25016.1116829699
   -0.9571428571     1.2769704845    73.1650193268    73.9737916438     0.0141157398     0.0001210668 25018.6027651948
   -0.9551020408     1.2700040004    72.7658691871    73.5916008283     0.0144117359     0.0001210523 25021.0891417813
   -0.9530612245     1.2631905710    72.3754884407    73.2176771981     0.0146989667     0.0001210395 25023.5708606764
   -0.9510204082     1.2565202341    71.9933062850    72.8514827052     0.0149780041     0.0001210285 25026.0479718953
   -0.9489795918     1.2499840563    71.6188108859    72.4925347391     0.0152493580     0.0001210192 25028.5205254921
   -0.9469387755     1.2435739909    71.2515411916    72.1403980039     0.0155134780     0.0001210118 25030.9885743400
   -0.9448979592     1.2372827589    70.8910801509    71.7946788382     0.0157707722     0.0001210062 25033.4521757384
   -0.9428571429     1.2311037506    70.5370490537    71.4550195436     0.0160216075     0.0001210023 25035.9113828345
   -0.9408163265     1.2250309424    70.1891027733    71.1210938862     0.0162663135     0.0001210001 25038.3662447850
   -0.9387755102     1.2190588266    69.8469257429    70.7926035058     0.0165051906     0.0001209996 25040.8168071652
   -0.9367346939     1.2131823517    69.5102285299    70.4692745486     0.0167385107     0.0001210005 25043.2631123228
   -0.9346938776     1.2073968710    69.1787449051    70.1508542159     0.0169665082     0.0001210029 25045.7051996856
   -0.9326530612     1.2016980990    68.8522293213    69.8371093482     0.0171893992     0.0001210066 25048.1431060297
   -0.9306122449     1.1960820730    68.5304547326    69.5278240752     0.0174073789     0.0001210114 25050.5768657158
   -0.9285714286     1.1905451201    68.2132107017    69.2227980592     0.0176206235     0.0001210172 25053.0065099505
   -0.9265306122     1.1850838286    67.9003017483    68.9218457599     0.0178293065     0.0001210239 25055.4320570621
   -0.9244897959     1.1796950225    67.5915459031    68.6247925878     0.0180335566     0.0001210313 25057.8535288173
   -0.9224489796     1.1743757395    67.2867734365    68.3314760960     0.0182335011     0.0001210393 25060.2709419401
   -0.9204081633     1.1691232113    66.9858257369    68.0417446893     0.0184292624     0.0001210476 25062.6843051437
   -0.9183673469     1.1639348463    66.6885543185    67.7554557216     0.0186209423     0.0001210561 25065.0936200538
   -0.9163265306     1.1588082142    66.3948199388    67.4724751072     0.0188086309     0.0001210647 25067.4988820151
   -0.9142857143     1.1537410325    66.1044918138    67.1926769540     0.0189924136     0.0001210732 25069.9000807973
   -0.9122448980     1.1487311539    65.8174469161    66.9159423739     0.0191723626     0.0001210813 25072.2972012150
   -0.9102040816     1.1437765557    65.5335693460    66.6421596569     0.0193485510     0.0001210890 25074.6902236736
   -0.9081632653     1.1388753294    65.2527497676    66.3712219612     0.0195210224     0.0001210960 25077.0791246508
   -0.9061224490     1.1340256726    64.9748848997    66.1030305580     0.0196898562     0.0001211023 25079.4638771220
   -0.9040816327     1.1292258803    64.6998770572    65.8374883037     0.0198550619     0.0001211076 25081.8444507449
   -0.9020408163     1.1244743380    64.4276337361    65.5745077066     0.0200167269     0.0001211118 25084.2208038918
   -0.9000000000     1.1197695150    64.1580672368    65.3140004050     0.0201748397     0.0001211146 25086.5928921897
   -0.8979591837     1.1151099586    63.8910943224    65.0558883870     0.0203294915     0.0001211162 25088.9606692143
   -0.8959183673     1.1104942885    63.6266359071    64.8000903286     0.0204806433     0.0001211160 25091.3240831893
   -0.8938775510     1.1059211919    63.3646167727    64.5465374105     0.0206284066     0.0001211143 25093.6830775179
   -0.8918367347     1.1013894190    63.1049653087    64.2951537645     0.0207727073     0.0001211106 25096.0375912600
   -0.8897959184     1.0968977787    62.8476132749    64.0458779766     0.0209136644     0.0001211051 25098.3875595609
   -0.8877551020     1.0924451350    62.5924955840    63.7986422172     0.0210512300     0.0001210975 25100.7329140376
   -0.8857142857     1.0880304035    62.3395501007    63.5533872915     0.0211854556     0.0001210877 25103.0735831267
   -0.8836734694     1.0836525480    62.0887174586    63.3100564715     0.0213163871     0.0001210757 25105.4094923982
   -0.8816326531     1.0793105778    61.8399408902    63.0685884513     0.0214439453     0.0001210610 25107.7405648397
   -0.8795918367     1.0750035447    61.5931660703    62.8289366733     0.0215682658     0.0001210441 25110.0667211122
   -0.8775510204     1.0707305406    61.3483409720    62.5910458921     0.0216892925     0.0001210246 25112.3878801352
   -0.8755102041     1.0664906953    61.1054157324    62.3548668619     0.0218070361     0.0001210024 25114.7039634300
   -0.8734693878     1.0622831742    60.8643425293    62.1203572570     0.0219215925     0.0001209776 25117.0148839217
   -0.8714285714     1.0581071761    60.6250754655    61.8874666602     0.0220328828     0.0001209499 25119.3205513683
   -0.8693877551     1.0539619319    60.3875704629    61.6561535197     0.0221409512     0.0001209193 25121.6208752915
   -0.8673469388     1.0498467020    60.1517851626    61.4263803230     0.0222458822     0.0001208860 25123.9157650412
   -0.8653061224     1.0457607758    59.9176788330    61.1981033979     0.0223476245     0.0001208498 25126.2051298523
   -0.8632653061     1.0417034691    59.6852122830    60.9712828671     0.0224461661     0.0001208104 25128.4888788958
   -0.8612244898     1.0376741234    59.4543477825    60.7458877192     0.0225416243     0.0001207682 25130.7669213246
   -0.8591836735     1.0336721045    59.2250489867    60.5218827819     0.0226340196     0.0001207231 25133.0391663142
   -0.8571428571     1.0296968008    58.9972808661    60.2992255848     0.0227232220     0.0001206746 25135.3055230990
   -0.8551020408     1.0257476230    58.7710096411    60.0778911507     0.0228093853     0.0001206232 25137.5659010045
   -0.8530612245     1.0218240020    58.5462027200    59.8578492044     0.0228925498     0.0001205689 25139.8202094767
   -0.8510204082     1.0179253889    58.3228286418    59.6390696448     0.0229727393     0.0001205116 25142.0683581070
   -0.8489795918     1.0140512533    58.1008570218    59.4215149064     0.0230498284     0.0001204510 25144.3102566553
   -0.8469387755     1.0102010827    57.8802585008    59.2051651255     0.0231239829     0.0001203874 25146.5458150697
   -0.8448979592     1.0063743820    57.6610046973    58.9899940788     0.0231952404     0.0001203209 25148.7749440153
   -0.8428571429     1.0025706719    57.4430681625    58.7759759192     0.0232636290     0.0001202516 25150.9975626375
   -0.8408163265     0.9987894889    57.2264223382    58.5630826163     0.0233291228     0.0001201792 25153.2135839954
   -0.8387755102     0.9950303845    57.0110415164    58.3512882037     0.0233917175     0.0001201036 25155.4229204621
   -0.8367346939     0.9912929239    56.7969008020    58.1405748608     0.0234515364     0.0001200253 25157.6254875244
   -0.8346938776     0.9875766864    56.5839760772    57.9309203278     0.0235086120     0.0001199442 25159.8212036283
   -0.8326530612     0.9838812640    56.3722439680    57.7223031453     0.0235629777     0.0001198604 25162.0099900336
   -0.8306122449     0.9802062611    56.1616818123    57.5147026220     0.0236146680     0.0001197738 25164.1917706775
   -0.8285714286     0.9765512941    55.9522676300    57.3080922984     0.0236636045     0.0001196843 25166.3664720449
   -0.8265306122     0.9729159908    55.7439800947    57.1024593306     0.0237099355     0.0001195922 25168.5340230474
   -0.8244897959     0.9692999900    55.5367985066    56.8977855656     0.0237537053     0.0001194975 25170.6943549082
   -0.8224489796     0.9657029407    55.3307027670    56.6940531063     0.0237949523     0.0001194004 25172.8474010535
   -0.8204081633     0.9621245024    55.1256733545    56.4912446796     0.0238337158     0.0001193008 25174.9930970104
   -0.8183673469     0.9585643440    54.9216913014    56.2893436117     0.0238700358     0.0001191989 25177.1313803097
   -0.8163265306     0.9550221437    54.7187381727    56.0883335204     0.0239039482     0.0001190947 25179.2621903942
   -0.8142857143     0.9514975886    54.5167960447    55.8881945581     0.0239354194     0.0001189879 25181.3854685323
   -0.8122448980     0.9479903746    54.3158474857    55.6889166318     0.0239645775     0.0001188791 25183.5011577353
   -0.8102040816     0.9445002057    54.1158755372    55.4904852371     0.0239914652     0.0001187681 25185.6092065565
   -0.8081632653     0.9410267938    53.9168636960    55.2928863549     0.0240161260     0.0001186552 25187.7095700930
   -0.8061224490     0.9375698586    53.7187958976    55.0961064306     0.0240386036     0.0001185403 25189.8021991254
   -0.8040816327     0.9341291270    53.5216564995    54.9001323550     0.0240589423     0.0001184236 25191.8870478142
   -0.8020408163     0.9307043332    53.3254302661    54.7049514464     0.0240771867     0.0001183051 25193.9640737939
   -0.8000000000     0.9272952180    53.1301023542    54.5105514318     0.0240933816     0.0001181848 25196.0332380162
   -0.7979591837     0.9239015290    52.9356582985    54.3169204302     0.0241075720     0.0001180630 25198.0945046016
   -0.7959183673     0.9205230201    52.7420839987    54.1240469354     0.0241198034     0.0001179396 25200.1478406988
   -0.7938775510     0.9171594514    52.5493657065    53.9319179213     0.0241300882     0.0001178146 25202.1932163505
   -0.7918367347     0.9138105888    52.3574900132    53.7405243654     0.0241385031     0.0001176883 25204.2306043667
   -0.7897959184     0.9104762040    52.1664438387    53.5498561615     0.0241450999     0.0001175606 25206.2599802043
   -0.7877551020     0.9071560743    51.9762144194    53.3599031364     0.0241499239     0.0001174317 25208.2813218517
   -0.7857142857     0.9038499823    51.7867892983    53.1706554158     0.0241530202     0.0001173017 25210.2946097204
   -0.7836734694     0.9005577156    51.5981563144    52.9821034106     0.0241544335     0.0001171707 25212.2998265409
   -0.7816326531     0.8972790671    51.4103035930    52.7942378041     0.0241542086     0.0001170387 25214.2969571491
   -0.7795918367     0.8940138344    51.2232195364    52.6070495395     0.0241523898     0.0001169057 25216.2859884020
   -0.7775510204     0.8907618196    51.0368928148    52.4205298082     0.0241490212     0.0001167720 25218.2669103529
   -0.7755102041     0.8875228296    50.8513123577    52.2346700386     0.0241441463     0.0001166375 25220.2397156501
   -0.7734693878     0.8842966755    50.6664673458    52.0494618846     0.0241378082     0.0001165023 25222.2043993597
   -0.7714285714     0.8810831728    50.4823472028    51.8648972157     0.0241300498     0.0001163666 25224.1609588674
   -0.7693877551     0.8778821410    50.2989415880    51.6809681063     0.0241209131     0.0001162304 25226.1093937829
   -0.7673469388     0.8746934035    50.1162403889    51.4976668263     0.0241104397     0.0001160937 25228.0497058505
   -0.7653061224     0.8715167878    49.9342337142    51.3149858321     0.0240986706     0.0001159566 25229.9818988623
   -0.7632653061     0.8683521249    49.7529118872    51.1329177574     0.0240856461     0.0001158193 25231.9059785765
   -0.7612244898     0.8651992496    49.5722654391    50.9514554048     0.0240714059     0.0001156817 25233.8219526383
   -0.7591836735     0.8620580001    49.3922851027    50.7705917379     0.0240559889     0.0001155440 25235.7298305056
   -0.7571428571     0.8589282182    49.2129618067    50.5903198736     0.0240394332     0.0001154062 25237.6296233768
   -0.7551020408     0.8558097488    49.0342866700    50.4106330745     0.0240217764     0.0001152684 25239.5213441227
   -0.7530612245     0.8527024401    48.8562509955    50.2315247424     0.0240030550     0.0001151306 25241.4050072205
   -0.7510204082     0.8496061434    48.6788462656    50.0529884112     0.0239833048     0.0001149929 25243.2806288232
   -0.7489795918     0.8465207132    48.5020641364    49.8750177412     0.0239625609     0.0001148554 25245.1482277335
   -0.7469387755     0.8434460067    48.3258964330    49.6976065125     0.0239408573     0.0001147181 25247.0078241588
   -0.7448979592     0.8403818842    48.1503351447    49.5207486200     0.0239182273     0.0001145810 25248.8594395299
   -0.7428571429     0.8373282086    47.9753724206    49.3444380674     0.0238947032     0.0001144444 25250.7030965523
   -0.7408163265     0.8342848456    47.8010005647    49.1686689626     0.0238703166     0.0001143081 25252.5388191572
   -0.7387755102     0.8312516635    47.6272120320    48.9934355127     0.0238450981     0.0001141722 25254.3666324542
   -0.7367346939     0.8282285332    47.4539994242    48.8187320198     0.0238190772     0.0001140368 25256.1865626874
   -0.7346938776     0.8252153280    47.2813554856    48.6445528765     0.0237922828     0.0001139020 25257.9986371920
   -0.7326530612     0.8222119238    47.1092730996    48.4708925620     0.0237647428     0.0001137677 25259.8028843536
   -0.7306122449     0.8192181987    46.9377452847    48.2977456386     0.0237364840     0.0001136341 25261.5993335682
   -0.7285714286     0.8162340331    46.7667651908    48.1251067481     0.0237075325     0.0001135011 25263.3880152052
   -0.7265306122     0.8132593097    46.5963260961    47.9529706083     0.0236779135     0.0001133688 25265.1689605710
   -0.7244897959     0.8102939134    46.4264214035    47.7813320103     0.0236476512     0.0001132373 25266.9422018740
   -0.7224489796     0.8073377312    46.2570446372    47.6101858157     0.0236167688     0.0001131065 25268.7077721916
   -0.7204081633     0.8043906520    46.0881894401    47.4395273908     0.0235852965     0.0001129765 25270.4657054385
   -0.7183673469     0.8014525670    45.9198495701    47.2693515761     0.0235532533     0.0001128475 25272.2160363355
   -0.7163265306     0.7985233692    45.7520188977    47.0996532871     0.0235206572     0.0001127192 25273.9587992529
   -0.7142857143     0.7956029535    45.5846914028    46.9304276414     0.0234875282     0.0001125919 25275.6940276649
   -0.7122448980     0.7926912167    45.4178611722    46.7616698154     0.0234538853     0.0001124655 25277.4217583732
   -0.7102040816     0.7897880574    45.2515223968    46.5933750413     0.0234197467     0.0001123401 25279.1420284183
   -0.7081632653     0.7868933760    45.0856693690    46.4255386062     0.0233851297     0.0001122156 25280.8548749078
   -0.7061224490     0.7840070746    44.9202964804    46.2581558501     0.0233500509     0.0001120921 25282.5603350096
   -0.7040816327     0.7811290570    44.7553982192    46.0912221649     0.0233145261     0.0001119697 25284.2584459459
   -0.7020408163     0.7782592286    44.5909691678    45.9247329927     0.0232785702     0.0001118482 25285.9492449876
   -0.7000000000     0.7753974966    44.4270040008    45.7586838251     0.0232421975     0.0001117278 25287.6327694482
   -0.6979591837     0.7725437695    44.2634974825    45.5930702020     0.0232054216     0.0001116085 25289.3090566794
   -0.6959183673     0.7696979575    44.1004444649    45.4278877536     0.0231682560     0.0001114902 25290.9781440652
   -0.6938775510     0.7668599722    43.9378398857    45.2631337604     0.0231307417     0.0001113731 25292.6400690179
   -0.6918367347     0.7640297268    43.7756787663    45.0988023445     0.0230928629     0.0001112571 25294.2948689731
