shape model output for Uranus's 1-bar isobaric surface. models are described in Mankovich et al. 2026, PSJ.
this model assumes the symmetric wind profile from Sromovsky et al. (2015, Icarus 258) Equation 2.
these solutions vary the polar radius to fit the pair of Voyager 2 occultations reported in Lindal et al. 1987 to a Gaussian standard deviation of 5 km.
mu=sin(phi), phi [radians], and lat_deg [degrees] refer to planetocentric latitude; lat_pg_deg gives planetographic latitude in degrees.
              mu          phi_rad          lat_deg       lat_pg_deg          psi_rad    omega_rad_s-1             r_km 
   -1.0000000000     1.5707963268    90.0000000000    90.0000000000     0.0000000000     0.0001210982 24959.4155119757
   -0.9998144712     1.5515331758    88.8963027451    88.9520903267     0.0009736770     0.0001211047 24959.6495956267
   -0.9996289425     1.5435536961    88.4391122386    88.5179984885     0.0013768248     0.0001211110 24959.8836635656
   -0.9994434137     1.5374305386    88.0882811581    88.1848851054     0.0016860570     0.0001211172 24960.1177199775
   -0.9992578850     1.5322682374    87.7925030866    87.9040381394     0.0019466539     0.0001211232 24960.3517635684
   -0.9990723562     1.5277199472    87.5319052508    87.6565898523     0.0021761568     0.0001211292 24960.5857930155
   -0.9988868275     1.5236077873    87.2962958471    87.4328638689     0.0023835616     0.0001211349 24960.8198072362
   -0.9987012987     1.5198260904    87.0796205724    87.2271122373     0.0025742152     0.0001211406 24961.0538053508
   -0.9985157699     1.5163060092    86.8779347757    87.0355897684     0.0027515987     0.0001211462 24961.2877866330
   -0.9983302412     1.5129997231    86.6884985354    86.8556951706     0.0029181318     0.0001211516 24961.5217504719
   -0.9981447124     1.5098724146    86.5093169626    86.6855344934     0.0030755761     0.0001211569 24961.7556963455
   -0.9979591837     1.5068978001    86.3388841007    86.5236779819     0.0032252617     0.0001211621 24961.9896238013
   -0.9959183673     1.4804147767    84.8215186329    85.0824477102     0.0045540715     0.0001212115 24964.5615210701
   -0.9938775510     1.4600831244    83.6566007642    83.9756184672     0.0055679093     0.0001212484 24967.1307608122
   -0.9918367347     1.4429339318    82.6740244067    83.0417016263     0.0064171781     0.0001212743 24969.6969472559
   -0.9897959184     1.4278174270    81.8079124837    82.2181624466     0.0071602126     0.0001212908 24972.2597266315
   -0.9877551020     1.4141440401    81.0244851196    81.4729393217     0.0078270024     0.0001212991 24974.8187941284
   -0.9857142857     1.4015635991    80.3036789465    80.7869927472     0.0084354171     0.0001213006 24977.3738950586
   -0.9836734694     1.3898479862    79.6324237728    80.1479229504     0.0089971579     0.0001212963 24979.9248217330
   -0.9816326531     1.3788387766    79.0016425268    79.5471219230     0.0095204115     0.0001212873 24982.4713868042
   -0.9795918367     1.3684206412    78.4047273409    78.9783246313     0.0100111613     0.0001212745 24985.0134363061
   -0.9775510204     1.3585065303    77.8366906282    78.4368056116     0.0104739823     0.0001212588 24987.5508594330
   -0.9755102041     1.3490288258    77.2936581616    77.9188954397     0.0109124491     0.0001212408 24990.0835740085
   -0.9734693878     1.3399337634    76.7725494708    77.4216782031     0.0113294336     0.0001212213 24992.6115174878
   -0.9714285714     1.3311777582    76.2708673246    76.9427914570     0.0117272884     0.0001212009 24995.1346411786
   -0.9693877551     1.3227248956    75.7865539757    76.4802895382     0.0121079697     0.0001211800 24997.6529104830
   -0.9673469388     1.3145451659    75.3178899826    76.0325474134     0.0124731252     0.0001211592 25000.1663193522
   -0.9653061224     1.3066131882    74.8634211408    75.5981917948     0.0128241672     0.0001211387 25002.6748669203
   -0.9632653061     1.2989072697    74.4219045316    75.1760492467     0.0131623083     0.0001211190 25005.1785665990
   -0.9612244898     1.2914086960    73.9922679079    74.7651077360     0.0134885996     0.0001211002 25007.6774438246
   -0.9591836735     1.2841011890    73.5735785965    74.3644877828     0.0138039694     0.0001210828 25010.1715327408
   -0.9571428571     1.2769704845    73.1650193268    73.9734183649     0.0141092249     0.0001210668 25012.6608737597
   -0.9551020408     1.2700040004    72.7658691871    73.5912195560     0.0144050814     0.0001210523 25015.1455117526
   -0.9530612245     1.2631905710    72.3754884407    73.2172881532     0.0146921766     0.0001210395 25017.6254946945
   -0.9510204082     1.2565202341    71.9933062850    72.8510860931     0.0149710819     0.0001210285 25020.1008726436
   -0.9489795918     1.2499840563    71.6188108859    72.4921307517     0.0152423071     0.0001210192 25022.5716957679
   -0.9469387755     1.2435739909    71.2515411916    72.1399868210     0.0155063015     0.0001210118 25025.0380165467
   -0.9448979592     1.2372827589    70.8910801509    71.7942606290     0.0157634731     0.0001210062 25027.4998922239
   -0.9428571429     1.2311037506    70.5370490537    71.4545944675     0.0160141885     0.0001210023 25029.9573759628
   -0.9408163265     1.2250309424    70.1891027733    71.1206620944     0.0162587773     0.0001210001 25032.4105169165
   -0.9387755102     1.2190588266    69.8469257429    70.7921651414     0.0164975397     0.0001209996 25034.8593606404
   -0.9367346939     1.2131823517    69.5102285299    70.4688297479     0.0167307475     0.0001210005 25037.3039494486
   -0.9346938776     1.2073968710    69.1787449051    70.1504031093     0.0169586349     0.0001210029 25039.7443227233
   -0.9326530612     1.2016980990    68.8522293213    69.8366520610     0.0171814180     0.0001210066 25042.1805171860
   -0.9306122449     1.1960820730    68.5304547326    69.5273607279     0.0173992919     0.0001210114 25044.6125671342
   -0.9285714286     1.1905451201    68.2132107017    69.2223287681     0.0176124328     0.0001210172 25047.0405038236
   -0.9265306122     1.1850838286    67.9003017483    68.9213706374     0.0178210140     0.0001210239 25049.4643456205
   -0.9244897959     1.1796950225    67.5915459031    68.6243117432     0.0180251643     0.0001210313 25051.8841140539
   -0.9224489796     1.1743757395    67.2867734365    68.3309896363     0.0182250108     0.0001210393 25054.2998258837
   -0.9204081633     1.1691232113    66.9858257369    68.0412527188     0.0184206758     0.0001210476 25056.7114898537
   -0.9183673469     1.1639348463    66.6885543185    67.7549583426     0.0186122614     0.0001210561 25059.1191076156
   -0.9163265306     1.1588082142    66.3948199388    67.4719724202     0.0187998573     0.0001210647 25061.5226745355
   -0.9142857143     1.1537410325    66.1044918138    67.1921690583     0.0189835491     0.0001210732 25063.9221804009
   -0.9122448980     1.1487311539    65.8174469161    66.9154293677     0.0191634089     0.0001210813 25066.3176100408
   -0.9102040816     1.1437765557    65.5335693460    66.6416416370     0.0193395098     0.0001210890 25068.7089438719
   -0.9081632653     1.1388753294    65.2527497676    66.3706990244     0.0195118954     0.0001210960 25071.0961583803
   -0.9061224490     1.1340256726    64.9748848997    66.1025027996     0.0196806451     0.0001211023 25073.4792265476
   -0.9040816327     1.1292258803    64.6998770572    65.8369558199     0.0198457683     0.0001211076 25075.8581180496
   -0.9020408163     1.1244743380    64.4276337361    65.5739705916     0.0200073525     0.0001211118 25078.2327915476
   -0.9000000000     1.1197695150    64.1580672368    65.3134587550     0.0201653861     0.0001211146 25080.6032026368
   -0.8979591837     1.1151099586    63.8910943224    65.0553422956     0.0203199604     0.0001211162 25082.9693047641
   -0.8959183673     1.1104942885    63.6266359071    64.7995398923     0.0204710364     0.0001211160 25085.3310460841
   -0.8938775510     1.1059211919    63.3646167727    64.5459827227     0.0206187255     0.0001211143 25087.6883699851
   -0.8918367347     1.1013894190    63.1049653087    64.2945949225     0.0207629536     0.0001211106 25090.0412155614
   -0.8897959184     1.0968977787    62.8476132749    64.0453150740     0.0209038399     0.0001211051 25092.3895180381
   -0.8877551020     1.0924451350    62.5924955840    63.7980753509     0.0210413363     0.0001210975 25094.7332091527
   -0.8857142857     1.0880304035    62.3395501007    63.5528165573     0.0211754944     0.0001210877 25097.0722175001
   -0.8836734694     1.0836525480    62.0887174586    63.3094819641     0.0213063600     0.0001210757 25099.4064688430
   -0.8816326531     1.0793105778    61.8399408902    63.0680102699     0.0214338541     0.0001210610 25101.7358863926
   -0.8795918367     1.0750035447    61.5931660703    62.8283549124     0.0215581122     0.0001210441 25104.0603910627
   -0.8775510204     1.0707305406    61.3483409720    62.5904606494     0.0216790781     0.0001210246 25106.3799017927
   -0.8755102041     1.0664906953    61.1054157324    62.3542782354     0.0217967626     0.0001210024 25108.6943367049
   -0.8734693878     1.0622831742    60.8643425293    62.1197653415     0.0219112616     0.0001209776 25111.0036094942
   -0.8714285714     1.0581071761    60.6250754655    61.8868715547     0.0220224962     0.0001209499 25113.3076319541
   -0.8693877551     1.0539619319    60.3875704629    61.6555553226     0.0221305107     0.0001209193 25115.6063151441
   -0.8673469388     1.0498467020    60.1517851626    61.4257791298     0.0222353894     0.0001208860 25117.8995694876
   -0.8653061224     1.0457607758    59.9176788330    61.1974993072     0.0223370811     0.0001208498 25120.1873048616
   -0.8632653061     1.0417034691    59.6852122830    60.9706759789     0.0224355739     0.0001208104 25122.4694306777
   -0.8612244898     1.0376741234    59.4543477825    60.7452781290     0.0225309850     0.0001207682 25124.7458559543
   -0.8591836735     1.0336721045    59.2250489867    60.5212705853     0.0226233347     0.0001207231 25127.0164893837
   -0.8571428571     1.0296968008    58.9972808661    60.2986108833     0.0227124935     0.0001206746 25129.2812393908
   -0.8551020408     1.0257476230    58.7710096411    60.0772740398     0.0227986147     0.0001206232 25131.5400141882
   -0.8530612245     1.0218240020    58.5462027200    59.8572297787     0.0228817388     0.0001205689 25133.7927218244
   -0.8510204082     1.0179253889    58.3228286418    59.6384479982     0.0229618895     0.0001205116 25136.0392703991
   -0.8489795918     1.0140512533    58.1008570218    59.4208911387     0.0230389416     0.0001204510 25138.2795709072
   -0.8469387755     1.0102010827    57.8802585008    59.2045393303     0.0231130607     0.0001203874 25140.5135346929
   -0.8448979592     1.0063743820    57.6610046973    58.9893663491     0.0231842845     0.0001203209 25142.7410739606
   -0.8428571429     1.0025706719    57.4430681625    58.7753463467     0.0232526409     0.0001202516 25144.9621024550
   -0.8408163265     0.9987894889    57.2264223382    58.5624512943     0.0233181042     0.0001201792 25147.1765353956
   -0.8387755102     0.9950303845    57.0110415164    58.3506552271     0.0233806700     0.0001201036 25149.3842894148
   -0.8367346939     0.9912929239    56.7969008020    58.1399403198     0.0234404616     0.0001200253 25151.5852824988
   -0.8346938776     0.9875766864    56.5839760772    57.9302843119     0.0234975114     0.0001199442 25153.7794339320
   -0.8326530612     0.9838812640    56.3722439680    57.7216657431     0.0235518530     0.0001198604 25155.9666642440
   -0.8306122449     0.9802062611    56.1616818123    57.5140639208     0.0236035205     0.0001197738 25158.1468951591
   -0.8285714286     0.9765512941    55.9522676300    57.3074523891     0.0236524360     0.0001196843 25160.3200509997
   -0.8265306122     0.9729159908    55.7439800947    57.1018182986     0.0236987474     0.0001195922 25162.4860637380
   -0.8244897959     0.9692999900    55.5367985066    56.8971434947     0.0237424990     0.0001194975 25164.6448625125
   -0.8224489796     0.9657029407    55.3307027670    56.6934100789     0.0237837293     0.0001194004 25166.7963787763
   -0.8204081633     0.9621245024    55.1256733545    56.4906007767     0.0238224776     0.0001193008 25168.9405471055
   -0.8183673469     0.9585643440    54.9216913014    56.2886989131     0.0238587837     0.0001191989 25171.0773050500
   -0.8163265306     0.9550221437    54.7187381727    56.0876881049     0.0238926836     0.0001190947 25173.2065929934
   -0.8142857143     0.9514975886    54.5167960447    55.8875485064     0.0239241437     0.0001189879 25175.3283540200
   -0.8122448980     0.9479903746    54.3158474857    55.6882700201     0.0239532920     0.0001188791 25177.4425337896
   -0.8102040816     0.9445002057    54.1158755372    55.4898381399     0.0239801712     0.0001187681 25179.5490804181
   -0.8081632653     0.9410267938    53.9168636960    55.2922388448     0.0240048248     0.0001186552 25181.6479443656
   -0.8061224490     0.9375698586    53.7187958976    55.0954585788     0.0240272965     0.0001185403 25183.7390783688
   -0.8040816327     0.9341291270    53.5216564995    54.8994842319     0.0240476305     0.0001184236 25185.8224405495
   -0.8020408163     0.9307043332    53.3254302661    54.7043031207     0.0240658713     0.0001183051 25187.8979896862
   -0.8000000000     0.9272952180    53.1301023542    54.5099029707     0.0240820638     0.0001181848 25189.9656855505
   -0.7979591837     0.9239015290    52.9356582985    54.3162718990     0.0240962530     0.0001180630 25192.0254912822
   -0.7959183673     0.9205230201    52.7420839987    54.1233983979     0.0241084843     0.0001179396 25194.0773732398
   -0.7938775510     0.9171594514    52.5493657065    53.9312694408     0.0241187701     0.0001178146 25196.1213008583
   -0.7918367347     0.9138105888    52.3574900132    53.7398760025     0.0241271870     0.0001176883 25198.1572465145
   -0.7897959184     0.9104762040    52.1664438387    53.5492079745     0.0241337869     0.0001175606 25200.1851853988
   -0.7877551020     0.9071560743    51.9762144194    53.3592551823     0.0241386150     0.0001174317 25202.2050953937
   -0.7857142857     0.9038499823    51.7867892983    53.1700077498     0.0241417163     0.0001173017 25204.2169569576
   -0.7836734694     0.9005577156    51.5981563144    52.9814560864     0.0241431356     0.0001171707 25206.2207530273
   -0.7816326531     0.8972790671    51.4103035930    52.7935908737     0.0241429175     0.0001170387 25208.2164693242
   -0.7795918367     0.8940138344    51.2232195364    52.6064030533     0.0241411065     0.0001169057 25210.2040931961
   -0.7775510204     0.8907618196    51.0368928148    52.4198838152     0.0241377465     0.0001167720 25212.1836142347
   -0.7755102041     0.8875228296    50.8513123577    52.2340245859     0.0241328810     0.0001166375 25214.1550246603
   -0.7734693878     0.8842966755    50.6664673458    52.0488170179     0.0241265532     0.0001165023 25216.1183192132
   -0.7714285714     0.8810831728    50.4823472028    51.8642529787     0.0241188057     0.0001163666 25218.0734950509
   -0.7693877551     0.8778821410    50.2989415880    51.6803245415     0.0241096808     0.0001162304 25220.0205516494
   -0.7673469388     0.8746934035    50.1162403889    51.4970239745     0.0240992198     0.0001160937 25221.9594907095
   -0.7653061224     0.8715167878    49.9342337142    51.3143437326     0.0240874639     0.0001159566 25223.8903160672
   -0.7632653061     0.8683521249    49.7529118872    51.1322764480     0.0240744532     0.0001158193 25225.8130336083
   -0.7612244898     0.8651992496    49.5722654391    50.9508149218     0.0240602274     0.0001156817 25227.7276511867
   -0.7591836735     0.8620580001    49.3922851027    50.7699521162     0.0240448254     0.0001155440 25229.6341785463
   -0.7571428571     0.8589282182    49.2129618067    50.5896811467     0.0240282854     0.0001154062 25231.5326272467
   -0.7551020408     0.8558097488    49.0342866700    50.4099952747     0.0240106447     0.0001152684 25233.4230105917
   -0.7530612245     0.8527024401    48.8562509955    50.2308879003     0.0239919400     0.0001151306 25235.3053435616
   -0.7510204082     0.8496061434    48.6788462656    50.0523525565     0.0239722071     0.0001149929 25237.1796423430
   -0.7489795918     0.8465207132    48.5020641364    49.8743829019     0.0239514808     0.0001148554 25239.0459249942
   -0.7469387755     0.8434460067    48.3258964330    49.6969727154     0.0239297954     0.0001147181 25240.9042116134
   -0.7448979592     0.8403818842    48.1503351447    49.5201158907     0.0239071840     0.0001145810 25242.7545236134
   -0.7428571429     0.8373282086    47.9753724206    49.3438064302     0.0238836791     0.0001144444 25244.5968836702
   -0.7408163265     0.8342848456    47.8010005647    49.1680384406     0.0238593119     0.0001143081 25246.4313156749
   -0.7387755102     0.8312516635    47.6272120320    48.9928061279     0.0238341132     0.0001141722 25248.2578446872
   -0.7367346939     0.8282285332    47.4539994242    48.8181037931     0.0238081126     0.0001140368 25250.0764968909
   -0.7346938776     0.8252153280    47.2813554856    48.6439258276     0.0237813388     0.0001139020 25251.8872995519
   -0.7326530612     0.8222119238    47.1092730996    48.4702667097     0.0237538196     0.0001137677 25253.6902809766
   -0.7306122449     0.8192181987    46.9377452847    48.2971210006     0.0237255820     0.0001136341 25255.4854704737
   -0.7285714286     0.8162340331    46.7667651908    48.1244833411     0.0236966520     0.0001135011 25257.2728983162
   -0.7265306122     0.8132593097    46.5963260961    47.9523484481     0.0236670548     0.0001133688 25259.0525957056
   -0.7244897959     0.8102939134    46.4264214035    47.7807111118     0.0236368144     0.0001132373 25260.8245947378
   -0.7224489796     0.8073377312    46.2570446372    47.6095661928     0.0236059543     0.0001131065 25262.5889283696
   -0.7204081633     0.8043906520    46.0881894401    47.4389090564     0.0235745046     0.0001129765 25264.3456303875
   -0.7183673469     0.8014525670    45.9198495701    47.2687345423     0.0235424840     0.0001128475 25266.0947353769
   -0.7163265306     0.7985233692    45.7520188977    47.0990375654     0.0235099108     0.0001127192 25267.8362786934
   -0.7142857143     0.7956029535    45.5846914028    46.9298132430     0.0234768050     0.0001125919 25269.5702963837
   -0.7122448980     0.7926912167    45.4178611722    46.7610567503     0.0234431853     0.0001124655 25271.2968219743
   -0.7102040816     0.7897880574    45.2515223968    46.5927633188     0.0234090702     0.0001123401 25273.0158909093
   -0.7081632653     0.7868933760    45.0856693690    46.4249282349     0.0233744767     0.0001122156 25274.7275407197
   -0.7061224490     0.7840070746    44.9202964804    46.2575468381     0.0233394217     0.0001120921 25276.4318089399
   -0.7040816327     0.7811290570    44.7553982192    46.0906145197     0.0233039207     0.0001119697 25278.1287331039
   -0.7020408163     0.7782592286    44.5909691678    45.9241267214     0.0232679888     0.0001118482 25279.8183507408
   -0.7000000000     0.7753974966    44.4270040008    45.7580789343     0.0232316402     0.0001117278 25281.5006993704
   -0.6979591837     0.7725437695    44.2634974825    45.5924666977     0.0231948885     0.0001116085 25283.1758165001
   -0.6959183673     0.7696979575    44.1004444649    45.4272856416     0.0231577472     0.0001114902 25284.8437396205
   -0.6938775510     0.7668599722    43.9378398857    45.2625330445     0.0231202572     0.0001113731 25286.5045062029
   -0.6918367347     0.7640297268    43.7756787663    45.0982030296     0.0230824028     0.0001112571 25288.1581536953
