shape model output for Uranus's 1-bar isobaric surface. models are described in Mankovich et al. 2026, PSJ.
this model assumes the symmetric wind profile from Sromovsky et al. (2015, Icarus 258) Equation 2.
these solutions vary the polar radius to fit the pair of Voyager 2 occultations reported in Lindal et al. 1987 to a Gaussian standard deviation of 5 km.
mu=sin(phi), phi [radians], and lat_deg [degrees] refer to planetocentric latitude; lat_pg_deg gives planetographic latitude in degrees.
              mu          phi_rad          lat_deg       lat_pg_deg          psi_rad    omega_rad_s-1             r_km 
   -1.0000000000     1.5707963268    90.0000000000    90.0000000000     0.0000000000     0.0001210982 24969.7991936081
   -0.9998144712     1.5515331758    88.8963027451    88.9521351356     0.0009744590     0.0001211047 24970.0335627317
   -0.9996289425     1.5435536961    88.4391122386    88.5180618564     0.0013779308     0.0001211110 24970.2679161454
   -0.9994434137     1.5374305386    88.0882811581    88.1849627129     0.0016874115     0.0001211172 24970.5022580371
   -0.9992578850     1.5322682374    87.7925030866    87.9041277502     0.0019482179     0.0001211232 24970.7365871109
   -0.9990723562     1.5277199472    87.5319052508    87.6566900371     0.0021779054     0.0001211292 24970.9709020420
   -0.9988868275     1.5236077873    87.2962958471    87.4329736121     0.0023854770     0.0001211349 24971.2052017465
   -0.9987012987     1.5198260904    87.0796205724    87.2272307692     0.0025762839     0.0001211406 24971.4394853435
   -0.9985157699     1.5163060092    86.8779347757    87.0357164794     0.0027538102     0.0001211462 24971.6737521057
   -0.9983302412     1.5129997231    86.6884985354    86.8558295624     0.0029204774     0.0001211516 24971.9080014216
   -0.9981447124     1.5098724146    86.5093169626    86.6856761485     0.0030780485     0.0001211569 24972.1422327684
   -0.9979591837     1.5068978001    86.3388841007    86.5238265441     0.0032278546     0.0001211621 24972.3764456931
   -0.9959183673     1.4804147767    84.8215186329    85.0826576693     0.0045577360     0.0001212115 24974.9514827215
   -0.9938775510     1.4600831244    83.6566007642    83.9758753764     0.0055723932     0.0001212484 24977.5238609415
   -0.9918367347     1.4429339318    82.6740244067    83.0419979390     0.0064223497     0.0001212743 24980.0931840127
   -0.9897959184     1.4278174270    81.8079124837    82.2184932895     0.0071659869     0.0001212908 24982.6590975668
   -0.9877551020     1.4141440401    81.0244851196    81.4733011946     0.0078333182     0.0001212991 24985.2212962589
   -0.9857142857     1.4015635991    80.3036789465    80.7873829681     0.0084422278     0.0001213006 24987.7795249493
   -0.9836734694     1.3898479862    79.6324237728    80.1483393735     0.0090044259     0.0001212963 24990.3335756148
   -0.9816326531     1.3788387766    79.0016425268    79.5475627783     0.0095281058     0.0001212873 24992.8832605406
   -0.9795918367     1.3684206412    78.4047273409    78.9787884238     0.0100192560     0.0001212745 24995.4284255885
   -0.9775510204     1.3585065303    77.8366906282    78.4372910574     0.0104824550     0.0001212588 24997.9689597748
   -0.9755102041     1.3490288258    77.2936581616    77.9194014200     0.0109212801     0.0001212408 25000.5047807418
   -0.9734693878     1.3399337634    76.7725494708    77.4222037324     0.0113386059     0.0001212213 25003.0358257663
   -0.9714285714     1.3311777582    76.2708673246    76.9433356594     0.0117367866     0.0001212009 25005.5620459825
   -0.9693877551     1.3227248956    75.7865539757    76.4808516290     0.0121177800     0.0001211800 25008.0834069097
   -0.9673469388     1.3145451659    75.3178899826    76.0331266851     0.0124832354     0.0001211592 25010.5999022819
   -0.9653061224     1.3066131882    74.8634211408    75.5987876064     0.0128345660     0.0001211387 25013.1115313450
   -0.9632653061     1.2989072697    74.4219045316    75.1766610144     0.0131729857     0.0001211190 25015.6183077766
   -0.9612244898     1.2914086960    73.9922679079    74.7657349254     0.0134995461     0.0001211002 25018.1202571639
   -0.9591836735     1.2841011890    73.5735785965    74.3651299036     0.0138151765     0.0001210828 25020.6174137128
   -0.9571428571     1.2769704845    73.1650193268    73.9740749648     0.0141206847     0.0001210668 25023.1098178294
   -0.9551020408     1.2700040004    72.7658691871    73.5918902166     0.0144167867     0.0001210523 25025.5975143258
   -0.9530612245     1.2631905710    72.3754884407    73.2179724860     0.0147041205     0.0001210395 25028.0805510763
   -0.9510204082     1.2565202341    71.9933062850    72.8517837368     0.0149832581     0.0001210285 25030.5589780058
   -0.9489795918     1.2499840563    71.6188108859    72.4928413689     0.0152547097     0.0001210192 25033.0328450845
   -0.9469387755     1.2435739909    71.2515411916    72.1407100952     0.0155189250     0.0001210118 25035.5022055967
   -0.9448979592     1.2372827589    70.8910801509    71.7949962627     0.0157763123     0.0001210062 25037.9671168752
   -0.9428571429     1.2311037506    70.5370490537    71.4553421801     0.0160272386     0.0001210023 25040.4276320545
   -0.9408163265     1.2250309424    70.1891027733    71.1214216203     0.0162720336     0.0001210001 25042.8838002968
   -0.9387755102     1.2190588266    69.8469257429    70.7929362287     0.0165109977     0.0001209996 25045.3356671980
   -0.9367346939     1.2131823517    69.5102285299    70.4696121570     0.0167444031     0.0001210005 25047.7832751389
   -0.9346938776     1.2073968710    69.1787449051    70.1511966106     0.0169724841     0.0001210029 25050.2266635908
   -0.9326530612     1.2016980990    68.8522293213    69.8374564343     0.0171954570     0.0001210066 25052.6658693825
   -0.9306122449     1.1960820730    68.5304547326    69.5281757611     0.0174135170     0.0001210114 25055.1009269347
   -0.9285714286     1.1905451201    68.2132107017    69.2231542565     0.0176268403     0.0001210172 25057.5318672030
   -0.9265306122     1.1850838286    67.9003017483    68.9222063836     0.0178356005     0.0001210239 25059.9587085234
   -0.9244897959     1.1796950225    67.5915459031    68.6251575547     0.0180399265     0.0001210313 25062.3814731702
   -0.9224489796     1.1743757395    67.2867734365    68.3318453250     0.0182399454     0.0001210393 25064.8001777304
   -0.9204081633     1.1691232113    66.9858257369    68.0421181013     0.0184357796     0.0001210476 25067.2148308236
   -0.9183673469     1.1639348463    66.6885543185    67.7558332390     0.0186275312     0.0001210561 25069.6254340204
   -0.9163265306     1.1588082142    66.3948199388    67.4728566535     0.0188152901     0.0001210647 25072.0319826442
   -0.9142857143     1.1537410325    66.1044918138    67.1930624539     0.0189991418     0.0001210732 25074.4344664735
   -0.9122448980     1.1487311539    65.8174469161    66.9163317530     0.0191791585     0.0001210813 25076.8328703585
   -0.9102040816     1.1437765557    65.5335693460    66.6425528416     0.0193554133     0.0001210890 25079.2271747641
   -0.9081632653     1.1388753294    65.2527497676    66.3716188781     0.0195279499     0.0001210960 25081.6173562481
   -0.9061224490     1.1340256726    64.9748848997    66.1034311349     0.0196968476     0.0001211023 25084.0033878855
   -0.9040816327     1.1292258803    64.6998770572    65.8378924676     0.0198621158     0.0001211076 25086.3852392225
   -0.9020408163     1.1244743380    64.4276337361    65.5749153858     0.0200238422     0.0001211118 25088.7628682409
   -0.9000000000     1.1197695150    64.1580672368    65.3144115267     0.0201820151     0.0001211146 25091.1362308725
   -0.8979591837     1.1151099586    63.8910943224    65.0563028800     0.0203367258     0.0001211162 25093.5052801199
   -0.8959183673     1.1104942885    63.6266359071    64.8005081196     0.0204879351     0.0001211160 25095.8699638156
   -0.8938775510     1.1059211919    63.3646167727    64.5469584288     0.0206357548     0.0001211143 25098.2302251376
   -0.8918367347     1.1013894190    63.1049653087    64.2955779359     0.0207801105     0.0001211106 25100.5860030719
   -0.8897959184     1.0968977787    62.8476132749    64.0463052298     0.0209211213     0.0001211051 25102.9372328280
   -0.8877551020     1.0924451350    62.5924955840    63.7990724788     0.0210587395     0.0001210975 25105.2838462132
   -0.8857142857     1.0880304035    62.3395501007    63.5538204889     0.0211930163     0.0001210877 25107.6257719696
   -0.8836734694     1.0836525480    62.0887174586    63.3104925326     0.0213239978     0.0001210757 25109.9629360785
   -0.8816326531     1.0793105778    61.8399408902    63.0690273010     0.0214516047     0.0001210610 25112.2952620350
   -0.8795918367     1.0750035447    61.5931660703    62.8293782401     0.0215759726     0.0001210441 25114.6226710965
   -0.8775510204     1.0707305406    61.3483409720    62.5914901019     0.0216970454     0.0001210246 25116.9450824898
   -0.8755102041     1.0664906953    61.1054157324    62.3553136399     0.0218148338     0.0001210024 25119.2624121567
   -0.8734693878     1.0622831742    60.8643425293    62.1208065307     0.0219294338     0.0001209776 25121.5745728603
   -0.8714285714     1.0581071761    60.6250754655    61.8879183541     0.0220407663     0.0001209499 25123.8814765075
   -0.8693877551     1.0539619319    60.3875704629    61.6566075594     0.0221488757     0.0001209193 25126.1830342798
   -0.8673469388     1.0498467020    60.1517851626    61.4268366361     0.0222538463     0.0001208860 25128.4791567311
   -0.8653061224     1.0457607758    59.9176788330    61.1985619100     0.0223556270     0.0001208498 25130.7697538762
   -0.8632653061     1.0417034691    59.6852122830    60.9717435030     0.0224542057     0.0001208104 25133.0547352714
   -0.8612244898     1.0376741234    59.4543477825    60.7463504066     0.0225496997     0.0001207682 25135.3340100862
   -0.8591836735     1.0336721045    59.2250489867    60.5223474489     0.0226421295     0.0001207231 25137.6074871696
   -0.8571428571     1.0296968008    58.9972808661    60.2996921546     0.0227313652     0.0001206746 25139.8750751089
   -0.8551020408     1.0257476230    58.7710096411    60.0783595507     0.0228175604     0.0001206232 25142.1366822837
   -0.8530612245     1.0218240020    58.5462027200    59.8583193630     0.0229007556     0.0001205689 25144.3922169141
   -0.8510204082     1.0179253889    58.3228286418    59.6395414903     0.0229809745     0.0001205116 25146.6415879073
   -0.8489795918     1.0140512533    58.1008570218    59.4219883627     0.0230580917     0.0001204510 25148.8847042783
   -0.8469387755     1.0102010827    57.8802585008    59.2056401211     0.0231322731     0.0001203874 25151.1214747866
   -0.8448979592     1.0063743820    57.6610046973    58.9904705431     0.0232035563     0.0001203209 25153.3518103779
   -0.8428571429     1.0025706719    57.4430681625    58.7764537815     0.0232719692     0.0001202516 25155.5756241175
   -0.8408163265     0.9987894889    57.2264223382    58.5635618046     0.0233374862     0.0001201792 25157.7928310912
   -0.8387755102     0.9950303845    57.0110415164    58.3517686462     0.0234001028     0.0001201036 25160.0033483110
   -0.8367346939     0.9912929239    56.7969008020    58.1410564894     0.0234599424     0.0001200253 25162.2070946272
   -0.8346938776     0.9875766864    56.5839760772    57.9314030754     0.0235170375     0.0001199442 25164.4039906445
   -0.8326530612     0.9838812640    56.3722439680    57.7227869456     0.0235714216     0.0001198604 25166.5939586434
   -0.8306122449     0.9802062611    56.1616818123    57.5151874094     0.0236231291     0.0001197738 25168.7769225055
   -0.8285714286     0.9765512941    55.9522676300    57.3085780043     0.0236720817     0.0001196843 25170.9528076429
   -0.8265306122     0.9729159908    55.7439800947    57.1029458906     0.0237184276     0.0001195922 25173.1215409313
   -0.8244897959     0.9692999900    55.5367985066    56.8982729163     0.0237622111     0.0001194975 25175.2830515445
   -0.8224489796     0.9657029407    55.3307027670    56.6945411851     0.0238034709     0.0001194004 25177.4372753919
   -0.8204081633     0.9621245024    55.1256733545    56.4917334248     0.0238422460     0.0001193008 25179.5841447040
   -0.8183673469     0.9585643440    54.9216913014    56.2898329622     0.0238785766     0.0001191989 25181.7235940013
   -0.8163265306     0.9550221437    54.7187381727    56.0888234156     0.0239124985     0.0001190947 25183.8555614742
   -0.8142857143     0.9514975886    54.5167960447    55.8886849363     0.0239439781     0.0001189879 25185.9799888087
   -0.8122448980     0.9479903746    54.3158474857    55.6894074354     0.0239731436     0.0001188791 25188.0968210227
   -0.8102040816     0.9445002057    54.1158755372    55.4909764092     0.0240000378     0.0001187681 25190.2060063104
   -0.8081632653     0.9410267938    53.9168636960    55.2933778396     0.0240247040     0.0001186552 25192.3074958956
   -0.8061224490     0.9375698586    53.7187958976    55.0965981733     0.0240471862     0.0001185403 25194.4012438921
   -0.8040816327     0.9341291270    53.5216564995    54.9006243027     0.0240675284     0.0001184236 25196.4872071720
   -0.8020408163     0.9307043332    53.3254302661    54.7054435474     0.0240857755     0.0001183051 25198.5653452409
   -0.8000000000     0.9272952180    53.1301023542    54.5110436357     0.0241019721     0.0001181848 25200.6356201191
   -0.7979591837     0.9239015290    52.9356582985    54.3174126879     0.0241161635     0.0001180630 25202.6979962291
   -0.7959183673     0.9205230201    52.7420839987    54.1245391988     0.0241283950     0.0001179396 25204.7524402893
   -0.7938775510     0.9171594514    52.5493657065    53.9324101425     0.0241386791     0.0001178146 25206.7989212801
   -0.7918367347     0.9138105888    52.3574900132    53.7410164987     0.0241470925     0.0001176883 25208.8374115483
   -0.7897959184     0.9104762040    52.1664438387    53.5503481624     0.0241536870     0.0001175606 25210.8678851547
   -0.7877551020     0.9071560743    51.9762144194    53.3603949616     0.0241585079     0.0001174317 25212.8903187283
   -0.7857142857     0.9038499823    51.7867892983    53.1711470231     0.0241616003     0.0001173017 25214.9046919116
   -0.7836734694     0.9005577156    51.5981563144    52.9825947590     0.0241630092     0.0001171707 25216.9109872326
   -0.7816326531     0.8972790671    51.4103035930    52.7947288539     0.0241627791     0.0001170387 25218.9091899823
   -0.7795918367     0.8940138344    51.2232195364    52.6075402524     0.0241609544     0.0001169057 25220.8992880988
   -0.7775510204     0.8907618196    51.0368928148    52.4210201472     0.0241575792     0.0001167720 25222.8812720565
   -0.7755102041     0.8875228296    50.8513123577    52.2351599678     0.0241526971     0.0001166375 25224.8551347608
   -0.7734693878     0.8842966755    50.6664673458    52.0499513695     0.0241463514     0.0001165023 25226.8208714473
   -0.7714285714     0.8810831728    50.4823472028    51.8653862228     0.0241385846     0.0001163666 25228.7784795862
   -0.7693877551     0.8778821410    50.2989415880    51.6814566035     0.0241294390     0.0001162304 25230.7279587913
   -0.7673469388     0.8746934035    50.1162403889    51.4981547826     0.0241189562     0.0001160937 25232.6693107320
   -0.7653061224     0.8715167878    49.9342337142    51.3154732176     0.0241071771     0.0001159566 25234.6025390509
   -0.7632653061     0.8683521249    49.7529118872    51.1334045433     0.0240941421     0.0001158193 25236.5276492843
   -0.7612244898     0.8651992496    49.5722654391    50.9519415635     0.0240798910     0.0001156817 25238.4446486612
   -0.7591836735     0.8620580001    49.3922851027    50.7710772428     0.0240644625     0.0001155440 25240.3535464120
   -0.7571428571     0.8589282182    49.2129618067    50.5908046992     0.0240478950     0.0001154062 25242.2543542003
   -0.7551020408     0.8558097488    49.0342866700    50.4111171965     0.0240302259     0.0001152684 25244.1470854417
   -0.7530612245     0.8527024401    48.8562509955    50.2320081375     0.0240114918     0.0001151306 25246.0317552161
   -0.7510204082     0.8496061434    48.6788462656    50.0534710574     0.0239917286     0.0001149929 25247.9083802032
   -0.7489795918     0.8465207132    48.5020641364    49.8754996172     0.0239709712     0.0001148554 25249.7769786200
   -0.7469387755     0.8434460067    48.3258964330    49.6980875981     0.0239492538     0.0001147181 25251.6375701624
   -0.7448979592     0.8403818842    48.1503351447    49.5212288957     0.0239266096     0.0001145810 25253.4901759482
   -0.7428571429     0.8373282086    47.9753724206    49.3449175147     0.0239030711     0.0001144444 25255.3348184624
   -0.7408163265     0.8342848456    47.8010005647    49.1691475640     0.0238786698     0.0001143081 25257.1715215063
   -0.7387755102     0.8312516635    47.6272120320    48.9939132515     0.0238534362     0.0001141722 25259.0003101469
   -0.7367346939     0.8282285332    47.4539994242    48.8192088800     0.0238274000     0.0001140368 25260.8212106695
   -0.7346938776     0.8252153280    47.2813554856    48.6450288431     0.0238005900     0.0001139020 25262.6342505325
   -0.7326530612     0.8222119238    47.1092730996    48.4713676209     0.0237730341     0.0001137677 25264.4394583228
   -0.7306122449     0.8192181987    46.9377452847    48.2982197763     0.0237447593     0.0001136341 25266.2368637150
   -0.7285714286     0.8162340331    46.7667651908    48.1255799519     0.0237157915     0.0001135011 25268.0264974301
   -0.7265306122     0.8132593097    46.5963260961    47.9534428663     0.0236861560     0.0001133688 25269.8083911977
   -0.7244897959     0.8102939134    46.4264214035    47.7818033113     0.0236558769     0.0001132373 25271.5825767628
   -0.7224489796     0.8073377312    46.2570446372    47.6106561489     0.0236249777     0.0001131065 25273.3490865711
   -0.7204081633     0.8043906520    46.0881894401    47.4399967465     0.0235934883     0.0001129765 25275.1079548274
   -0.7183673469     0.8014525670    45.9198495701    47.2698199451     0.0235614278     0.0001128475 25276.8592161264
   -0.7163265306     0.7985233692    45.7520188977    47.1001206605     0.0235288144     0.0001127192 25278.6029054326
   -0.7142857143     0.7956029535    45.5846914028    46.9308940115     0.0234956679     0.0001125919 25280.3390580635
   -0.7122448980     0.7926912167    45.4178611722    46.7621351745     0.0234620074     0.0001124655 25282.0677096749
   -0.7102040816     0.7897880574    45.2515223968    46.5938393823     0.0234278510     0.0001123401 25283.7888962460
   -0.7081632653     0.7868933760    45.0856693690    46.4260019223     0.0233932161     0.0001122156 25285.5026540655
   -0.7061224490     0.7840070746    44.9202964804    46.2586181350     0.0233581193     0.0001120921 25287.2090197183
   -0.7040816327     0.7811290570    44.7553982192    46.0916834125     0.0233225764     0.0001119697 25288.9080300724
   -0.7020408163     0.7782592286    44.5909691678    45.9251931975     0.0232866023     0.0001118482 25290.5997222667
   -0.7000000000     0.7753974966    44.4270040008    45.7591429820     0.0232502113     0.0001117278 25292.2841336991
   -0.6979591837     0.7725437695    44.2634974825    45.5935283061     0.0232134170     0.0001116085 25293.9613020155
   -0.6959183673     0.7696979575    44.1004444649    45.4283448006     0.0231762330     0.0001114902 25295.6312650987
   -0.6938775510     0.7668599722    43.9378398857    45.2635897473     0.0231387001     0.0001113731 25297.2940610580
   -0.6918367347     0.7640297268    43.7756787663    45.0992572677     0.0231008028     0.0001112571 25298.9497282194
