shape model output for Uranus's 1-bar isobaric surface. models are described in Mankovich et al. 2026, PSJ.
this model assumes the symmetric wind profile from Sromovsky et al. (2015, Icarus 258) Equation 2.
these solutions vary the polar radius to fit the pair of Voyager 2 occultations reported in Lindal et al. 1987 to a Gaussian standard deviation of 5 km.
mu=sin(phi), phi [radians], and lat_deg [degrees] refer to planetocentric latitude; lat_pg_deg gives planetographic latitude in degrees.
              mu          phi_rad          lat_deg       lat_pg_deg          psi_rad    omega_rad_s-1             r_km 
   -1.0000000000     1.5707963268    90.0000000000    90.0000000000     0.0000000000     0.0001210982 24961.9604548324
   -0.9998144712     1.5515331758    88.8963027451    88.9521013037     0.0009738686     0.0001211047 24962.1946084135
   -0.9996289425     1.5435536961    88.4391122386    88.5180140120     0.0013770957     0.0001211110 24962.4287462832
   -0.9994434137     1.5374305386    88.0882811581    88.1849041172     0.0016863888     0.0001211172 24962.6628726270
   -0.9992578850     1.5322682374    87.7925030866    87.9040600916     0.0019470370     0.0001211232 24962.8969861506
   -0.9990723562     1.5277199472    87.5319052508    87.6566143949     0.0021765852     0.0001211292 24963.1310855306
   -0.9988868275     1.5236077873    87.2962958471    87.4328907531     0.0023840309     0.0001211349 24963.3651696842
   -0.9987012987     1.5198260904    87.0796205724    87.2271412745     0.0025747220     0.0001211406 24963.5992377314
   -0.9985157699     1.5163060092    86.8779347757    87.0356208092     0.0027521405     0.0001211462 24963.8332889456
   -0.9983302412     1.5129997231    86.6884985354    86.8557280931     0.0029187064     0.0001211516 24964.0673227157
   -0.9981447124     1.5098724146    86.5093169626    86.6855691951     0.0030761818     0.0001211569 24964.3013385196
   -0.9979591837     1.5068978001    86.3388841007    86.5237143757     0.0032258969     0.0001211621 24964.5353359047
   -0.9959183673     1.4804147767    84.8215186329    85.0824991446     0.0045549692     0.0001212115 24967.1080022974
   -0.9938775510     1.4600831244    83.6566007642    83.9756814031     0.0055690077     0.0001212484 24969.6780108492
   -0.9918367347     1.4429339318    82.6740244067    83.0417742150     0.0064184450     0.0001212743 24972.2449656490
   -0.9897959184     1.4278174270    81.8079124837    82.2182434943     0.0071616272     0.0001212908 24974.8085127805
   -0.9877551020     1.4141440401    81.0244851196    81.4730279708     0.0078285496     0.0001212991 24977.3683473020
   -0.9857142857     1.4015635991    80.3036789465    80.7870883409     0.0084370856     0.0001213006 24979.9242144151
   -0.9836734694     1.3898479862    79.6324237728    80.1480249628     0.0089989384     0.0001212963 24982.4759063485
   -0.9816326531     1.3788387766    79.0016425268    79.5472299206     0.0095222964     0.0001212873 24985.0232356648
   -0.9795918367     1.3684206412    78.4047273409    78.9784382478     0.0100131443     0.0001212745 24987.5660483558
   -0.9775510204     1.3585065303    77.8366906282    78.4369245325     0.0104760579     0.0001212588 24990.1042335723
   -0.9755102041     1.3490288258    77.2936581616    77.9190193910     0.0109146125     0.0001212408 24992.6377090935
   -0.9734693878     1.3399337634    76.7725494708    77.4218069433     0.0113316806     0.0001212213 24995.1664123305
   -0.9714285714     1.3311777582    76.2708673246    76.9429247716     0.0117296152     0.0001212009 24997.6902945486
   -0.9693877551     1.3227248956    75.7865539757    76.4804272348     0.0121103730     0.0001211800 25000.2093212000
   -0.9673469388     1.3145451659    75.3178899826    76.0326893188     0.0124756019     0.0001211592 25002.7234862247
   -0.9653061224     1.3066131882    74.8634211408    75.5983377520     0.0128267146     0.0001211387 25005.2327886980
   -0.9632653061     1.2989072697    74.4219045316    75.1761991126     0.0131649240     0.0001211190 25007.7372420434
   -0.9612244898     1.2914086960    73.9922679079    74.7652613798     0.0134912812     0.0001211002 25010.2368717165
   -0.9591836735     1.2841011890    73.5735785965    74.3646450842     0.0138067148     0.0001210828 25012.7317118847
   -0.9571428571     1.2769704845    73.1650193268    73.9735792132     0.0141120322     0.0001210668 25015.2218029879
   -0.9551020408     1.2700040004    72.7658691871    73.5913838487     0.0144079489     0.0001210523 25017.7071899274
   -0.9530612245     1.2631905710    72.3754884407    73.2174557951     0.0146951025     0.0001210395 25020.1879207104
   -0.9510204082     1.2565202341    71.9933062850    72.8512569957     0.0149740647     0.0001210285 25022.6640454278
   -0.9489795918     1.2499840563    71.6188108859    72.4923048323     0.0152453454     0.0001210192 25025.1356141950
   -0.9469387755     1.2435739909    71.2515411916    72.1401640022     0.0155093939     0.0001210118 25027.6026795355
   -0.9448979592     1.2372827589    70.8910801509    71.7944408378     0.0157666183     0.0001210062 25030.0652987249
   -0.9428571429     1.2311037506    70.5370490537    71.4547776353     0.0160173854     0.0001210023 25032.5235249211
   -0.9408163265     1.2250309424    70.1891027733    71.1208481560     0.0162620247     0.0001210001 25034.9774072692
   -0.9387755102     1.2190588266    69.8469257429    70.7923540351     0.0165008365     0.0001209996 25037.4269913136
   -0.9367346939     1.2131823517    69.5102285299    70.4690214150     0.0167340927     0.0001210005 25039.8723193557
   -0.9346938776     1.2073968710    69.1787449051    70.1505974935     0.0169620275     0.0001210029 25042.3134307632
   -0.9326530612     1.2016980990    68.8522293213    69.8368491085     0.0171848572     0.0001210066 25044.7503622414
   -0.9306122449     1.1960820730    68.5304547326    69.5275603865     0.0174027767     0.0001210114 25047.1831480709
   -0.9285714286     1.1905451201    68.2132107017    69.2225309879     0.0176159622     0.0001210172 25049.6118200033
   -0.9265306122     1.1850838286    67.9003017483    68.9215753699     0.0178245873     0.0001210239 25052.0363964464
   -0.9244897959     1.1796950225    67.5915459031    68.6245189413     0.0180287806     0.0001210313 25054.4568976154
   -0.9224489796     1.1743757395    67.2867734365    68.3311992538     0.0182286693     0.0001210393 25056.8733411410
   -0.9204081633     1.1691232113    66.9858257369    68.0414647108     0.0184243758     0.0001210476 25059.2857363540
   -0.9183673469     1.1639348463    66.6885543185    67.7551726651     0.0186160020     0.0001210561 25061.6940852427
   -0.9163265306     1.1588082142    66.3948199388    67.4721890300     0.0188036379     0.0001210647 25064.0983832877
   -0.9142857143     1.1537410325    66.1044918138    67.1923879127     0.0189873688     0.0001210732 25066.4986201941
   -0.9122448980     1.1487311539    65.8174469161    66.9156504244     0.0191672671     0.0001210813 25068.8947805341
   -0.9102040816     1.1437765557    65.5335693460    66.6418648542     0.0193434057     0.0001210890 25071.2868443121
   -0.9081632653     1.1388753294    65.2527497676    66.3709243605     0.0195158283     0.0001210960 25073.6747874640
   -0.9061224490     1.1340256726    64.9748848997    66.1027302134     0.0196846142     0.0001211023 25076.0585822981
   -0.9040816327     1.1292258803    64.6998770572    65.8371852698     0.0198497729     0.0001211076 25078.4381978859
   -0.9020408163     1.1244743380    64.4276337361    65.5742020372     0.0200113920     0.0001211118 25080.8135968327
   -0.9000000000     1.1197695150    64.1580672368    65.3136921549     0.0201694597     0.0001211146 25083.1847327447
   -0.8979591837     1.1151099586    63.8910943224    65.0555776094     0.0203240674     0.0001211162 25085.5515580146
   -0.8959183673     1.1104942885    63.6266359071    64.7997770784     0.0204751760     0.0001211160 25087.9140201502
   -0.8938775510     1.1059211919    63.3646167727    64.5462217406     0.0206228971     0.0001211143 25090.2720621827
   -0.8918367347     1.1013894190    63.1049653087    64.2948357301     0.0207671565     0.0001211106 25092.6256231137
   -0.8897959184     1.0968977787    62.8476132749    64.0455576308     0.0209080733     0.0001211051 25094.9746383168
   -0.8877551020     1.0924451350    62.5924955840    63.7983196150     0.0210455995     0.0001210975 25097.3190398983
   -0.8857142857     1.0880304035    62.3395501007    63.5530624874     0.0211797867     0.0001210877 25099.6587570230
   -0.8836734694     1.0836525480    62.0887174586    63.3097295194     0.0213106807     0.0001210757 25101.9937162079
   -0.8816326531     1.0793105778    61.8399408902    63.0682594078     0.0214382024     0.0001210610 25104.3238415870
   -0.8795918367     1.0750035447    61.5931660703    62.8286055924     0.0215624874     0.0001210441 25106.6490551514
   -0.8775510204     1.0707305406    61.3483409720    62.5907128298     0.0216834795     0.0001210246 25108.9692769046
   -0.8755102041     1.0664906953    61.1054157324    62.3545318737     0.0218011894     0.0001210024 25111.2844213701
   -0.8734693878     1.0622831742    60.8643425293    62.1200203966     0.0219157131     0.0001209776 25113.5944007284
   -0.8714285714     1.0581071761    60.6250754655    61.8871279839     0.0220269718     0.0001209499 25115.8991274296
   -0.8693877551     1.0539619319    60.3875704629    61.6558130835     0.0221350094     0.0001209193 25118.1985130699
   -0.8673469388     1.0498467020    60.1517851626    61.4260381812     0.0222399107     0.0001208860 25120.4924684985
   -0.8653061224     1.0457607758    59.9176788330    61.1977596069     0.0223416242     0.0001208498 25122.7809039149
   -0.8632653061     1.0417034691    59.6852122830    60.9709374840     0.0224401380     0.0001208104 25125.0637289558
   -0.8612244898     1.0376741234    59.4543477825    60.7455407985     0.0225355694     0.0001207682 25127.3408527756
   -0.8591836735     1.0336721045    59.2250489867    60.5215343782     0.0226279388     0.0001207231 25129.6121841177
   -0.8571428571     1.0296968008    58.9972808661    60.2988757560     0.0227171164     0.0001206746 25131.8776313800
   -0.8551020408     1.0257476230    58.7710096411    60.0775399512     0.0228032557     0.0001206232 25134.1371026745
   -0.8530612245     1.0218240020    58.5462027200    59.8574966881     0.0228863972     0.0001205689 25136.3905058806
   -0.8510204082     1.0179253889    58.3228286418    59.6387158650     0.0229665646     0.0001205116 25138.6377486939
   -0.8489795918     1.0140512533    58.1008570218    59.4211599196     0.0230436327     0.0001204510 25140.8787396435
   -0.8469387755     1.0102010827    57.8802585008    59.2048089852     0.0231177671     0.0001203874 25143.1133947759
   -0.8448979592     1.0063743820    57.6610046973    58.9896368381     0.0231890054     0.0001203209 25145.3416246773
   -0.8428571429     1.0025706719    57.4430681625    58.7756176299     0.0232573757     0.0001202516 25147.5633404280
   -0.8408163265     0.9987894889    57.2264223382    58.5627233311     0.0233228521     0.0001201792 25149.7784556093
   -0.8387755102     0.9950303845    57.0110415164    58.3509279762     0.0233854303     0.0001201036 25151.9868861823
   -0.8367346939     0.9912929239    56.7969008020    58.1402137422     0.0234452337     0.0001200253 25154.1885503737
   -0.8346938776     0.9875766864    56.5839760772    57.9305583690     0.0235022946     0.0001199442 25156.3833685688
   -0.8326530612     0.9838812640    56.3722439680    57.7219403968     0.0235566466     0.0001198604 25158.5712632096
   -0.8306122449     0.9802062611    56.1616818123    57.5143391339     0.0236083239     0.0001197738 25160.7521587000
   -0.8285714286     0.9765512941    55.9522676300    57.3077281227     0.0236572485     0.0001196843 25162.9259813146
   -0.8265306122     0.9729159908    55.7439800947    57.1020945161     0.0237035683     0.0001195922 25165.0926591140
   -0.8244897959     0.9692999900    55.5367985066    56.8974201602     0.0237473277     0.0001194975 25167.2521218639
   -0.8224489796     0.9657029407    55.3307027670    56.6936871569     0.0237885653     0.0001194004 25169.4043009588
   -0.8204081633     0.9621245024    55.1256733545    56.4908782321     0.0238273201     0.0001193008 25171.5491293917
   -0.8183673469     0.9585643440    54.9216913014    56.2889767116     0.0238636322     0.0001191989 25173.6865480795
   -0.8163265306     0.9550221437    54.7187381727    56.0879662128     0.0238975375     0.0001190947 25175.8164978561
   -0.8142857143     0.9514975886    54.5167960447    55.8878268890     0.0239290024     0.0001189879 25177.9389183451
   -0.8122448980     0.9479903746    54.3158474857    55.6885486444     0.0239581549     0.0001188791 25180.0537529011
   -0.8102040816     0.9445002057    54.1158755372    55.4901169735     0.0239850378     0.0001187681 25182.1609484349
   -0.8081632653     0.9410267938    53.9168636960    55.2925178559     0.0240096945     0.0001186552 25184.2604552491
   -0.8061224490     0.9375698586    53.7187958976    55.0957377364     0.0240321687     0.0001185403 25186.3522268819
   -0.8040816327     0.9341291270    53.5216564995    54.8997635052     0.0240525047     0.0001184236 25188.4362199589
   -0.8020408163     0.9307043332    53.3254302661    54.7045824800     0.0240707470     0.0001183051 25190.5123940535
   -0.8000000000     0.9272952180    53.1301023542    54.5101823871     0.0240869405     0.0001181848 25192.5807115537
   -0.7979591837     0.9239015290    52.9356582985    54.3165513446     0.0241011303     0.0001180630 25194.6411375358
   -0.7959183673     0.9205230201    52.7420839987    54.1236778454     0.0241133615     0.0001179396 25196.6936396456
   -0.7938775510     0.9171594514    52.5493657065    53.9315488633     0.0241236470     0.0001178146 25198.7381879838
   -0.7918367347     0.9138105888    52.3574900132    53.7401553742     0.0241320630     0.0001176883 25200.7747549990
   -0.7897959184     0.9104762040    52.1664438387    53.5494872706     0.0241386616     0.0001175606 25202.8033153847
   -0.7877551020     0.9071560743    51.9762144194    53.3595343783     0.0241434879     0.0001174317 25204.8238459820
   -0.7857142857     0.9038499823    51.7867892983    53.1702868220     0.0241465870     0.0001173017 25206.8363256872
   -0.7836734694     0.9005577156    51.5981563144    52.9817350114     0.0241480037     0.0001171707 25208.8407353629
   -0.7816326531     0.8972790671    51.4103035930    52.7938696287     0.0241477827     0.0001170387 25210.8370598938
   -0.7795918367     0.8940138344    51.2232195364    52.6066816169     0.0241459684     0.0001169057 25212.8252902886
   -0.7775510204     0.8907618196    51.0368928148    52.4201621663     0.0241426046     0.0001167720 25214.8054161258
   -0.7755102041     0.8875228296    50.8513123577    52.2343027043     0.0241377351     0.0001166375 25216.7774294186
   -0.7734693878     0.8842966755    50.6664673458    52.0490948839     0.0241314029     0.0001165023 25218.7413247205
   -0.7714285714     0.8810831728    50.4823472028    51.8645305736     0.0241236507     0.0001163666 25220.6970990216
   -0.7693877551     0.8778821410    50.2989415880    51.6806018468     0.0241145207     0.0001162304 25222.6447516495
   -0.7673469388     0.8746934035    50.1162403889    51.4973009727     0.0241040544     0.0001160937 25224.5842841746
   -0.7653061224     0.8715167878    49.9342337142    51.3146204067     0.0240922927     0.0001159566 25226.5157003202
   -0.7632653061     0.8683521249    49.7529118872    51.1325527817     0.0240792761     0.0001158193 25228.4390058759
   -0.7612244898     0.8651992496    49.5722654391    50.9510908994     0.0240650441     0.0001156817 25230.3542086156
   -0.7591836735     0.8620580001    49.3922851027    50.7702277226     0.0240496356     0.0001155440 25232.2613182191
   -0.7571428571     0.8589282182    49.2129618067    50.5899563674     0.0240330889     0.0001154062 25234.1603461966
   -0.7551020408     0.8558097488    49.0342866700    50.4102700958     0.0240154412     0.0001152684 25236.0513058172
   -0.7530612245     0.8527024401    48.8562509955    50.2311623087     0.0239967293     0.0001151306 25237.9342120404
   -0.7510204082     0.8496061434    48.6788462656    50.0526265394     0.0239769890     0.0001149929 25239.8090814503
   -0.7489795918     0.8465207132    48.5020641364    49.8746564473     0.0239562551     0.0001148554 25241.6759321929
   -0.7469387755     0.8434460067    48.3258964330    49.6972458118     0.0239345619     0.0001147181 25243.5347839162
   -0.7448979592     0.8403818842    48.1503351447    49.5203885268     0.0239119424     0.0001145810 25245.3856574558
   -0.7428571429     0.8373282086    47.9753724206    49.3440785955     0.0238884292     0.0001144444 25247.2285750972
   -0.7408163265     0.8342848456    47.8010005647    49.1683101251     0.0238640537     0.0001143081 25249.0635614070
   -0.7387755102     0.8312516635    47.6272120320    48.9930773221     0.0238388465     0.0001141722 25250.8906420319
   -0.7367346939     0.8282285332    47.4539994242    48.8183744880     0.0238128371     0.0001140368 25252.7098436102
   -0.7346938776     0.8252153280    47.2813554856    48.6441960149     0.0237860544     0.0001139020 25254.5211937334
   -0.7326530612     0.8222119238    47.1092730996    48.4705363814     0.0237585263     0.0001137677 25256.3247209099
   -0.7306122449     0.8192181987    46.9377452847    48.2973901491     0.0237302795     0.0001136341 25258.1204545298
   -0.7285714286     0.8162340331    46.7667651908    48.1247519593     0.0237013403     0.0001135011 25259.9084248313
   -0.7265306122     0.8132593097    46.5963260961    47.9526165293     0.0236717337     0.0001133688 25261.6886628683
   -0.7244897959     0.8102939134    46.4264214035    47.7809786496     0.0236414839     0.0001132373 25263.4612004798
   -0.7224489796     0.8073377312    46.2570446372    47.6098331812     0.0236106142     0.0001131065 25265.2260702603
   -0.7204081633     0.8043906520    46.0881894401    47.4391754897     0.0235791547     0.0001129765 25266.9833055310
   -0.7183673469     0.8014525670    45.9198495701    47.2690004153     0.0235471244     0.0001128475 25268.7329403132
   -0.7163265306     0.7985233692    45.7520188977    47.0993028730     0.0235145413     0.0001127192 25270.4750093016
   -0.7142857143     0.7956029535    45.5846914028    46.9300779802     0.0234814255     0.0001125919 25272.2095478398
   -0.7122448980     0.7926912167    45.4178611722    46.7613209128     0.0234477958     0.0001124655 25273.9365918955
   -0.7102040816     0.7897880574    45.2515223968    46.5930269027     0.0234136706     0.0001123401 25275.6561780383
   -0.7081632653     0.7868933760    45.0856693690    46.4251912365     0.0233790670     0.0001122156 25277.3683434169
   -0.7061224490     0.7840070746    44.9202964804    46.2578092540     0.0233440017     0.0001120921 25279.0731257381
   -0.7040816327     0.7811290570    44.7553982192    46.0908763465     0.0233084904     0.0001119697 25280.7705616003
   -0.7020408163     0.7782592286    44.5909691678    45.9243879559     0.0232725482     0.0001118482 25282.4606856834
   -0.7000000000     0.7753974966    44.4270040008    45.7583395734     0.0232361892     0.0001117278 25284.1435364637
   -0.6979591837     0.7725437695    44.2634974825    45.5927267388     0.0231994270     0.0001116085 25285.8191524102
   -0.6959183673     0.7696979575    44.1004444649    45.4275450821     0.0231622753     0.0001114902 25287.4875718058
   -0.6938775510     0.7668599722    43.9378398857    45.2627918830     0.0231247748     0.0001113731 25289.1488327484
   -0.6918367347     0.7640297268    43.7756787663    45.0984612639     0.0230869099     0.0001112571 25290.8029731520
