shape model output for Uranus's 1-bar isobaric surface. models are described in Mankovich et al. 2026, PSJ.
this model assumes the symmetric wind profile from Sromovsky et al. (2015, Icarus 258) Equation 2.
these solutions vary the polar radius to fit the pair of Voyager 2 occultations reported in Lindal et al. 1987 to a Gaussian standard deviation of 5 km.
mu=sin(phi), phi [radians], and lat_deg [degrees] refer to planetocentric latitude; lat_pg_deg gives planetographic latitude in degrees.
              mu          phi_rad          lat_deg       lat_pg_deg          psi_rad    omega_rad_s-1             r_km 
   -1.0000000000     1.5707963268    90.0000000000    90.0000000000     0.0000000000     0.0001210982 24968.3735261230
   -0.9998144712     1.5515331758    88.8963027451    88.9521289800     0.0009743516     0.0001211047 24968.6078560282
   -0.9996289425     1.5435536961    88.4391122386    88.5180531513     0.0013777788     0.0001211110 24968.8421702232
   -0.9994434137     1.5374305386    88.0882811581    88.1849520517     0.0016872254     0.0001211172 24969.0764728955
   -0.9992578850     1.5322682374    87.7925030866    87.9041154400     0.0019480031     0.0001211232 24969.3107627494
   -0.9990723562     1.5277199472    87.5319052508    87.6566762743     0.0021776652     0.0001211292 24969.5450384605
   -0.9988868275     1.5236077873    87.2962958471    87.4329585362     0.0023852139     0.0001211349 24969.7792989451
   -0.9987012987     1.5198260904    87.0796205724    87.2272144861     0.0025759997     0.0001211406 24970.0135433223
   -0.9985157699     1.5163060092    86.8779347757    87.0356990726     0.0027535064     0.0001211462 24970.2477708651
   -0.9983302412     1.5129997231    86.6884985354    86.8558111005     0.0029201551     0.0001211516 24970.4819809619
   -0.9981447124     1.5098724146    86.5093169626    86.6856566888     0.0030777088     0.0001211569 24970.7161730902
   -0.9979591837     1.5068978001    86.3388841007    86.5238061356     0.0032274984     0.0001211621 24970.9503467970
   -0.9959183673     1.4804147767    84.8215186329    85.0826288264     0.0045572326     0.0001212115 24973.5249524829
   -0.9938775510     1.4600831244    83.6566007642    83.9758400838     0.0055717772     0.0001212484 24976.0968995363
   -0.9918367347     1.4429339318    82.6740244067    83.0419572334     0.0064216393     0.0001212743 24978.6657916948
   -0.9897959184     1.4278174270    81.8079124837    82.2184478403     0.0071651937     0.0001212908 24981.2312746726
   -0.9877551020     1.4141440401    81.0244851196    81.4732514826     0.0078324506     0.0001212991 24983.7930431978
   -0.9857142857     1.4015635991    80.3036789465    80.7873293619     0.0084412922     0.0001213006 24986.3508421931
   -0.9836734694     1.3898479862    79.6324237728    80.1482821677     0.0090034275     0.0001212963 24988.9044636809
   -0.9816326531     1.3788387766    79.0016425268    79.5475022162     0.0095270488     0.0001212873 24991.4537199969
   -0.9795918367     1.3684206412    78.4047273409    78.9787247106     0.0100181440     0.0001212745 24993.9984570266
   -0.9775510204     1.3585065303    77.8366906282    78.4372243696     0.0104812911     0.0001212588 24996.5385638108
   -0.9755102041     1.3490288258    77.2936581616    77.9193319112     0.0109200670     0.0001212408 24999.0739580166
   -0.9734693878     1.3399337634    76.7725494708    77.4221315381     0.0113373458     0.0001212213 25001.6045769452
   -0.9714285714     1.3311777582    76.2708673246    76.9432608998     0.0117354818     0.0001212009 25004.1303717547
   -0.9693877551     1.3227248956    75.7865539757    76.4807744120     0.0121164323     0.0001211800 25006.6513079406
   -0.9673469388     1.3145451659    75.3178899826    76.0330471078     0.0124818465     0.0001211592 25009.1673792487
   -0.9653061224     1.3066131882    74.8634211408    75.5987057569     0.0128331375     0.0001211387 25011.6785849360
   -0.9632653061     1.2989072697    74.4219045316    75.1765769729     0.0131715189     0.0001211190 25014.1849386629
   -0.9612244898     1.2914086960    73.9922679079    74.7656487653     0.0134980423     0.0001211002 25016.6864660045
   -0.9591836735     1.2841011890    73.5735785965    74.3650416922     0.0138136369     0.0001210828 25019.1832011580
   -0.9571428571     1.2769704845    73.1650193268    73.9739847644     0.0141191104     0.0001210668 25021.6751845239
   -0.9551020408     1.2700040004    72.7658691871    73.5917980845     0.0144151786     0.0001210523 25024.1624609108
   -0.9530612245     1.2631905710    72.3754884407    73.2178784757     0.0147024797     0.0001210395 25026.6450781917
   -0.9510204082     1.2565202341    71.9933062850    72.8516878978     0.0149815854     0.0001210285 25029.1230862912
   -0.9489795918     1.2499840563    71.6188108859    72.4927437476     0.0152530059     0.0001210192 25031.5965351946
   -0.9469387755     1.2435739909    71.2515411916    72.1406107351     0.0155171908     0.0001210118 25034.0654780998
   -0.9448979592     1.2372827589    70.8910801509    71.7948952047     0.0157745485     0.0001210062 25036.5299723405
   -0.9428571429     1.2311037506    70.5370490537    71.4552394628     0.0160254458     0.0001210023 25038.9900710577
   -0.9408163265     1.2250309424    70.1891027733    71.1213172801     0.0162702125     0.0001210001 25041.4458234089
   -0.9387755102     1.2190588266    69.8469257429    70.7928303001     0.0165091489     0.0001209996 25043.8972749769
   -0.9367346939     1.2131823517    69.5102285299    70.4695046730     0.0167425271     0.0001210005 25046.3444681216
   -0.9346938776     1.2073968710    69.1787449051    70.1510876028     0.0169705815     0.0001210029 25048.7874422872
   -0.9326530612     1.2016980990    68.8522293213    69.8373459329     0.0171935284     0.0001210066 25051.2262342701
   -0.9306122449     1.1960820730    68.5304547326    69.5280637952     0.0174115628     0.0001210114 25053.6608784543
   -0.9285714286     1.1905451201    68.2132107017    69.2230408543     0.0176248610     0.0001210172 25056.0914061441
   -0.9265306122     1.1850838286    67.9003017483    68.9220915722     0.0178335967     0.0001210239 25058.5178355765
   -0.9244897959     1.1796950225    67.5915459031    68.6250413605     0.0180378985     0.0001210313 25060.9401884328
   -0.9224489796     1.1743757395    67.2867734365    68.3317277739     0.0182378937     0.0001210393 25063.3584815839
   -0.9204081633     1.1691232113    66.9858257369    68.0419992184     0.0184337047     0.0001210476 25065.7727238357
   -0.9183673469     1.1639348463    66.6885543185    67.7557130491     0.0186254335     0.0001210561 25068.1829168591
   -0.9163265306     1.1588082142    66.3948199388    67.4727351809     0.0188131700     0.0001210647 25070.5890560015
   -0.9142857143     1.1537410325    66.1044918138    67.1929397226     0.0189969997     0.0001210732 25072.9911309977
   -0.9122448980     1.1487311539    65.8174469161    66.9162077867     0.0191769949     0.0001210813 25075.3891265944
   -0.9102040816     1.1437765557    65.5335693460    66.6424276637     0.0193532286     0.0001210890 25077.7830230996
   -0.9081632653     1.1388753294    65.2527497676    66.3714925119     0.0195257444     0.0001210960 25080.1727968670
   -0.9061224490     1.1340256726    64.9748848997    66.1033036035     0.0196946217     0.0001211023 25082.5584207249
   -0.9040816327     1.1292258803    64.6998770572    65.8377637940     0.0198598701     0.0001211076 25084.9398643043
   -0.9020408163     1.1244743380    64.4276337361    65.5747855932     0.0200215769     0.0001211118 25087.3170886141
   -0.9000000000     1.1197695150    64.1580672368    65.3142806384     0.0201797307     0.0001211146 25089.6900485335
   -0.8979591837     1.1151099586    63.8910943224    65.0561709187     0.0203344226     0.0001211162 25092.0586959456
   -0.8959183673     1.1104942885    63.6266359071    64.8003751085     0.0204856136     0.0001211160 25094.4229778547
   -0.8938775510     1.1059211919    63.3646167727    64.5468243903     0.0206334154     0.0001211143 25096.7828368767
   -0.8918367347     1.1013894190    63.1049653087    64.2954428934     0.0207777535     0.0001211106 25099.1382116780
   -0.8897959184     1.0968977787    62.8476132749    64.0461692060     0.0209187473     0.0001211051 25101.4890373702
   -0.8877551020     1.0924451350    62.5924955840    63.7989354968     0.0210563487     0.0001210975 25103.8352458657
   -0.8857142857     1.0880304035    62.3395501007    63.5536825717     0.0211906092     0.0001210877 25106.1767661971
   -0.8836734694     1.0836525480    62.0887174586    63.3103537031     0.0213215747     0.0001210757 25108.5135248061
   -0.8816326531     1.0793105778    61.8399408902    63.0688875831     0.0214491661     0.0001210610 25110.8454458040
   -0.8795918367     1.0750035447    61.5931660703    62.8292376566     0.0215735190     0.0001210441 25113.1724512073
   -0.8775510204     1.0707305406    61.3483409720    62.5913486767     0.0216945771     0.0001210246 25115.4944611503
   -0.8755102041     1.0664906953    61.1054157324    62.3551713968     0.0218123512     0.0001210024 25117.8113921585
   -0.8734693878     1.0622831742    60.8643425293    62.1206634929     0.0219269373     0.0001209776 25120.1231561619
   -0.8714285714     1.0581071761    60.6250754655    61.8877745456     0.0220382564     0.0001209499 25122.4296645084
   -0.8693877551     1.0539619319    60.3875704629    61.6564630038     0.0221463527     0.0001209193 25124.7308279481
   -0.8673469388     1.0498467020    60.1517851626    61.4266913566     0.0222513107     0.0001208860 25127.0265567219
   -0.8653061224     1.0457607758    59.9176788330    61.1984159303     0.0223530792     0.0001208498 25129.3167606421
   -0.8632653061     1.0417034691    59.6852122830    60.9715968470     0.0224516461     0.0001208104 25131.6013491650
   -0.8612244898     1.0376741234    59.4543477825    60.7462030974     0.0225471287     0.0001207682 25133.8802314564
   -0.8591836735     1.0336721045    59.2250489867    60.5221995094     0.0226395475     0.0001207231 25136.1533164505
   -0.8571428571     1.0296968008    58.9972808661    60.2995436093     0.0227287726     0.0001206746 25138.4205129034
   -0.8551020408     1.0257476230    58.7710096411    60.0782104228     0.0228149576     0.0001206232 25140.6817294412
   -0.8530612245     1.0218240020    58.5462027200    59.8581696752     0.0228981430     0.0001205689 25142.9368746034
   -0.8510204082     1.0179253889    58.3228286418    59.6393912655     0.0229783526     0.0001205116 25145.1858568818
   -0.8489795918     1.0140512533    58.1008570218    59.4218376253     0.0230554609     0.0001204510 25147.4285884198
   -0.8469387755     1.0102010827    57.8802585008    59.2054888944     0.0231296337     0.0001203874 25149.6649810078
   -0.8448979592     1.0063743820    57.6610046973    58.9903188499     0.0232009088     0.0001203209 25151.8949423093
   -0.8428571429     1.0025706719    57.4430681625    58.7763016439     0.0232693139     0.0001202516 25154.1183827903
   -0.8408163265     0.9987894889    57.2264223382    58.5634092451     0.0233348236     0.0001201792 25156.3352156188
   -0.8387755102     0.9950303845    57.0110415164    58.3516156874     0.0233974332     0.0001201036 25158.5453565313
   -0.8367346939     0.9912929239    56.7969008020    58.1409031525     0.0234572662     0.0001200253 25160.7487237087
   -0.8346938776     0.9875766864    56.5839760772    57.9312493816     0.0235143551     0.0001199442 25162.9452376584
   -0.8326530612     0.9838812640    56.3722439680    57.7226329157     0.0235687333     0.0001198604 25165.1348211038
   -0.8306122449     0.9802062611    56.1616818123    57.5150330642     0.0236204353     0.0001197738 25167.3173988797
   -0.8285714286     0.9765512941    55.9522676300    57.3084233657     0.0236693828     0.0001196843 25169.4928978338
   -0.8265306122     0.9729159908    55.7439800947    57.1027909791     0.0237157238     0.0001195922 25171.6612467334
   -0.8244897959     0.9692999900    55.5367985066    56.8981177524     0.0237595030     0.0001194975 25173.8223761779
   -0.8224489796     0.9657029407    55.3307027670    56.6943857887     0.0238007587     0.0001194004 25175.9762185150
   -0.8204081633     0.9621245024    55.1256733545    56.4915778155     0.0238395301     0.0001193008 25178.1227077623
   -0.8183673469     0.9585643440    54.9216913014    56.2896771594     0.0238758573     0.0001191989 25180.2617795326
   -0.8163265306     0.9550221437    54.7187381727    56.0886674388     0.0239097762     0.0001190947 25182.3933730795
   -0.8142857143     0.9514975886    54.5167960447    55.8885288058     0.0239412531     0.0001189879 25184.5174352871
   -0.8122448980     0.9479903746    54.3158474857    55.6892511699     0.0239704162     0.0001188791 25186.6339085802
   -0.8102040816     0.9445002057    54.1158755372    55.4908200270     0.0239973084     0.0001187681 25188.7427383644
   -0.8081632653     0.9410267938    53.9168636960    55.2932213583     0.0240219729     0.0001186552 25190.8438737026
   -0.8061224490     0.9375698586    53.7187958976    55.0964416100     0.0240444536     0.0001185403 25192.9372671471
   -0.8040816327     0.9341291270    53.5216564995    54.9004676740     0.0240647948     0.0001184236 25195.0228745792
   -0.8020408163     0.9307043332    53.3254302661    54.7052868694     0.0240830409     0.0001183051 25197.1006550590
   -0.8000000000     0.9272952180    53.1301023542    54.5108869244     0.0240992370     0.0001181848 25199.1705706814
   -0.7979591837     0.9239015290    52.9356582985    54.3172559586     0.0241134281     0.0001180630 25201.2325864404
   -0.7959183673     0.9205230201    52.7420839987    54.1243824668     0.0241256595     0.0001179396 25203.2866701002
   -0.7938775510     0.9171594514    52.5493657065    53.9322534232     0.0241359438     0.0001178146 25205.3327920726
   -0.7918367347     0.9138105888    52.3574900132    53.7408598067     0.0241443577     0.0001176883 25207.3709253009
   -0.7897959184     0.9104762040    52.1664438387    53.5501915120     0.0241509529     0.0001175606 25209.4010451490
   -0.7877551020     0.9071560743    51.9762144194    53.3602383669     0.0241557748     0.0001174317 25211.4231292966
   -0.7857142857     0.9038499823    51.7867892983    53.1709904978     0.0241588684     0.0001173017 25213.4371576395
   -0.7836734694     0.9005577156    51.5981563144    52.9824383164     0.0241602787     0.0001171707 25215.4431121940
   -0.7816326531     0.8972790671    51.4103035930    52.7945725067     0.0241600503     0.0001170387 25217.4409770070
   -0.7795918367     0.8940138344    51.2232195364    52.6073840127     0.0241582275     0.0001169057 25219.4307380697
   -0.7775510204     0.8907618196    51.0368928148    52.4208640267     0.0241548544     0.0001167720 25221.4123859530
   -0.7755102041     0.8875228296    50.8513123577    52.2350039780     0.0241499746     0.0001166375 25223.3859147393
   -0.7734693878     0.8842966755    50.6664673458    52.0497955214     0.0241436313     0.0001165023 25225.3513189052
   -0.7714285714     0.8810831728    50.4823472028    51.8652305271     0.0241358672     0.0001163666 25227.3085953789
   -0.7693877551     0.8778821410    50.2989415880    51.6813010702     0.0241267244     0.0001162304 25229.2577434410
   -0.7673469388     0.8746934035    50.1162403889    51.4979994215     0.0241162446     0.0001160937 25231.1987646291
   -0.7653061224     0.8715167878    49.9342337142    51.3153180381     0.0241044687     0.0001159566 25233.1316626471
   -0.7632653061     0.8683521249    49.7529118872    51.1332495545     0.0240914371     0.0001158193 25235.0564432786
   -0.7612244898     0.8651992496    49.5722654391    50.9517867742     0.0240771894     0.0001156817 25236.9731143041
   -0.7591836735     0.8620580001    49.3922851027    50.7709226614     0.0240617646     0.0001155440 25238.8816854218
   -0.7571428571     0.8589282182    49.2129618067    50.5906503338     0.0240452009     0.0001154062 25240.7821681726
   -0.7551020408     0.8558097488    49.0342866700    50.4109630549     0.0240275357     0.0001152684 25242.6745758672
   -0.7530612245     0.8527024401    48.8562509955    50.2318542271     0.0240088056     0.0001151306 25244.5589235176
   -0.7510204082     0.8496061434    48.6788462656    50.0533173853     0.0239890465     0.0001149929 25246.4352277710
   -0.7489795918     0.8465207132    48.5020641364    49.8753461901     0.0239682934     0.0001148554 25248.3035068466
   -0.7469387755     0.8434460067    48.3258964330    49.6979344225     0.0239465804     0.0001147181 25250.1637804753
   -0.7448979592     0.8403818842    48.1503351447    49.5210759779     0.0239239407     0.0001145810 25252.0160698417
   -0.7428571429     0.8373282086    47.9753724206    49.3447648605     0.0239004068     0.0001144444 25253.8603975293
   -0.7408163265     0.8342848456    47.8010005647    49.1689951790     0.0238760102     0.0001143081 25255.6967874667
   -0.7387755102     0.8312516635    47.6272120320    48.9937611410     0.0238507813     0.0001141722 25257.5252648777
   -0.7367346939     0.8282285332    47.4539994242    48.8190570491     0.0238247500     0.0001140368 25259.3458553937
   -0.7346938776     0.8252153280    47.2813554856    48.6448772964     0.0237979450     0.0001139020 25261.1585857788
   -0.7326530612     0.8222119238    47.1092730996    48.4712163630     0.0237703942     0.0001137677 25262.9634855505
   -0.7306122449     0.8192181987    46.9377452847    48.2980688115     0.0237421244     0.0001136341 25264.7605849632
   -0.7285714286     0.8162340331    46.7667651908    48.1254292843     0.0237131619     0.0001135011 25266.5499149481
   -0.7265306122     0.8132593097    46.5963260961    47.9532924998     0.0236835316     0.0001133688 25268.3315070863
   -0.7244897959     0.8102939134    46.4264214035    47.7816532497     0.0236532578     0.0001132373 25270.1053935827
   -0.7224489796     0.8073377312    46.2570446372    47.6105063956     0.0236223640     0.0001131065 25271.8716072420
   -0.7204081633     0.8043906520    46.0881894401    47.4398473048     0.0235908801     0.0001129765 25273.6301814443
   -0.7183673469     0.8014525670    45.9198495701    47.2696708179     0.0235588251     0.0001128475 25275.3811501233
   -0.7163265306     0.7985233692    45.7520188977    47.0999718506     0.0235262172     0.0001127192 25277.1245477440
   -0.7142857143     0.7956029535    45.5846914028    46.9307455213     0.0234930763     0.0001125919 25278.8604092823
   -0.7122448980     0.7926912167    45.4178611722    46.7619870064     0.0234594214     0.0001124655 25280.5887702048
   -0.7102040816     0.7897880574    45.2515223968    46.5936915385     0.0234252706     0.0001123401 25282.3096664499
   -0.7081632653     0.7868933760    45.0856693690    46.4258544048     0.0233906415     0.0001122156 25284.0231344091
   -0.7061224490     0.7840070746    44.9202964804    46.2584709457     0.0233555504     0.0001120921 25285.7292109100
   -0.7040816327     0.7811290570    44.7553982192    46.0915365533     0.0233200132     0.0001119697 25287.4279331989
   -0.7020408163     0.7782592286    44.5909691678    45.9250466700     0.0232840449     0.0001118482 25289.1193389248
   -0.7000000000     0.7753974966    44.4270040008    45.7589967879     0.0232476597     0.0001117278 25290.8034661239
   -0.6979591837     0.7725437695    44.2634974825    45.5933824472     0.0232108713     0.0001116085 25292.4803532048
   -0.6959183673     0.7696979575    44.1004444649    45.4281992782     0.0231736932     0.0001114902 25294.1500379118
   -0.6938775510     0.7668599722    43.9378398857    45.2634445623     0.0231361662     0.0001113731 25295.8125552519
   -0.6918367347     0.7640297268    43.7756787663    45.0991124211     0.0230982747     0.0001112571 25297.4679438791
