shape model output for Uranus's 1-bar isobaric surface. models are described in Mankovich et al. 2026, PSJ.
this model assumes the symmetric wind profile from Sromovsky et al. (2015, Icarus 258) Equation 2.
these solutions vary the polar radius to fit the pair of Voyager 2 occultations reported in Lindal et al. 1987 to a Gaussian standard deviation of 5 km.
mu=sin(phi), phi [radians], and lat_deg [degrees] refer to planetocentric latitude; lat_pg_deg gives planetographic latitude in degrees.
              mu          phi_rad          lat_deg       lat_pg_deg          psi_rad    omega_rad_s-1             r_km 
   -1.0000000000     1.5707963268    90.0000000000    90.0000000000     0.0000000000     0.0001210982 24973.7555739433
   -0.9998144712     1.5515331758    88.8963027451    88.9521522235     0.0009747573     0.0001211047 24973.9900519413
   -0.9996289425     1.5435536961    88.4391122386    88.5180860219     0.0013783525     0.0001211110 24974.2245142301
   -0.9994434137     1.5374305386    88.0882811581    88.1849923087     0.0016879280     0.0001211172 24974.4589649989
   -0.9992578850     1.5322682374    87.7925030866    87.9041619235     0.0019488143     0.0001211232 24974.6934029508
   -0.9990723562     1.5277199472    87.5319052508    87.6567282428     0.0021785722     0.0001211292 24974.9278267606
   -0.9988868275     1.5236077873    87.2962958471    87.4330154629     0.0023862074     0.0001211349 24975.1622353436
   -0.9987012987     1.5198260904    87.0796205724    87.2272759716     0.0025770729     0.0001211406 24975.3966278187
   -0.9985157699     1.5163060092    86.8779347757    87.0357648009     0.0027546536     0.0001211462 24975.6310034580
   -0.9983302412     1.5129997231    86.6884985354    86.8558808130     0.0029213719     0.0001211516 24975.8653616499
   -0.9981447124     1.5098724146    86.5093169626    86.6857301690     0.0030789913     0.0001211569 24976.0997018713
   -0.9979591837     1.5068978001    86.3388841007    86.5238831987     0.0032288434     0.0001211621 24976.3340236688
   -0.9959183673     1.4804147767    84.8215186329    85.0827377376     0.0045591334     0.0001212115 24978.9102581480
   -0.9938775510     1.4600831244    83.6566007642    83.9759733493     0.0055741031     0.0001212484 24981.4838333307
   -0.9918367347     1.4429339318    82.6740244067    83.0421109386     0.0064243219     0.0001212743 24984.0543526599
   -0.9897959184     1.4278174270    81.8079124837    82.2186194573     0.0071681890     0.0001212908 24986.6214615390
   -0.9877551020     1.4141440401    81.0244851196    81.4734391959     0.0078357268     0.0001212991 24989.1848544192
   -0.9857142857     1.4015635991    80.3036789465    80.7875317801     0.0084448250     0.0001213006 24991.7442759887
   -0.9836734694     1.3898479862    79.6324237728    80.1484981779     0.0090071976     0.0001212963 24994.2995180963
   -0.9816326531     1.3788387766    79.0016425268    79.5477309002     0.0095310401     0.0001212873 24996.8503928895
   -0.9795918367     1.3684206412    78.4047273409    78.9789652930     0.0100223430     0.0001212745 24999.3967461667
   -0.9775510204     1.3585065303    77.8366906282    78.4374761843     0.0104856861     0.0001212588 25001.9384668754
   -0.9755102041     1.3490288258    77.2936581616    77.9195943780     0.0109246479     0.0001212408 25004.4754725862
   -0.9734693878     1.3399337634    76.7725494708    77.4224041457     0.0113421037     0.0001212213 25007.0077005043
   -0.9714285714     1.3311777582    76.2708673246    76.9435431938     0.0117404087     0.0001212009 25009.5351016939
   -0.9693877551     1.3227248956    75.7865539757    76.4810659855     0.0121215213     0.0001211800 25012.0576417531
   -0.9673469388     1.3145451659    75.3178899826    76.0333475938     0.0124870910     0.0001211592 25014.5753143755
   -0.9653061224     1.3066131882    74.8634211408    75.5990148229     0.0128385317     0.0001211387 25017.0881187750
   -0.9632653061     1.2989072697    74.4219045316    75.1768943160     0.0131770576     0.0001211190 25019.5960686806
   -0.9612244898     1.2914086960    73.9922679079    74.7659741084     0.0135037206     0.0001211002 25022.0991897155
   -0.9591836735     1.2841011890    73.5735785965    74.3653747809     0.0138194504     0.0001210828 25024.5975161093
   -0.9571428571     1.2769704845    73.1650193268    73.9743253641     0.0141250550     0.0001210668 25027.0910882825
   -0.9551020408     1.2700040004    72.7658691871    73.5921459782     0.0144212505     0.0001210523 25029.5799510535
   -0.9530612245     1.2631905710    72.3754884407    73.2182334618     0.0147086754     0.0001210395 25032.0641522972
   -0.9510204082     1.2565202341    71.9933062850    72.8520497890     0.0149879016     0.0001210285 25034.5437419339
   -0.9489795918     1.2499840563    71.6188108859    72.4931123689     0.0152594395     0.0001210192 25037.0187698626
   -0.9469387755     1.2435739909    71.2515411916    72.1409859222     0.0155237391     0.0001210118 25039.4892896305
   -0.9448979592     1.2372827589    70.8910801509    71.7952768034     0.0157812087     0.0001210062 25041.9553586069
   -0.9428571429     1.2311037506    70.5370490537    71.4556273274     0.0160322153     0.0001210023 25044.4170299121
   -0.9408163265     1.2250309424    70.1891027733    71.1217112729     0.0162770889     0.0001210001 25046.8743526923
   -0.9387755102     1.2190588266    69.8469257429    70.7932302905     0.0165161301     0.0001209996 25049.3273725266
   -0.9367346939     1.2131823517    69.5102285299    70.4699105366     0.0167496108     0.0001210005 25051.7761317783
   -0.9346938776     1.2073968710    69.1787449051    70.1514992205     0.0169777656     0.0001210029 25054.2206699005
   -0.9326530612     1.2016980990    68.8522293213    69.8377631905     0.0172008109     0.0001210066 25056.6610237031
   -0.9306122449     1.1960820730    68.5304547326    69.5284865827     0.0174189418     0.0001210114 25059.0972275876
   -0.9285714286     1.1905451201    68.2132107017    69.2234690656     0.0176323347     0.0001210172 25061.5293132551
   -0.9265306122     1.1850838286    67.9003017483    68.9225251049     0.0178411633     0.0001210239 25063.9572988093
   -0.9244897959     1.1796950225    67.5915459031    68.6254801146     0.0180455562     0.0001210313 25066.3812051549
   -0.9224489796     1.1743757395    67.2867734365    68.3321716517     0.0182456409     0.0001210393 25068.8010498086
   -0.9204081633     1.1691232113    66.9858257369    68.0424481250     0.0184415396     0.0001210476 25071.2168420094
   -0.9183673469     1.1639348463    66.6885543185    67.7561668912     0.0186333545     0.0001210561 25073.6285836738
   -0.9163265306     1.1588082142    66.3948199388    67.4731938666     0.0188211756     0.0001210647 25076.0362702284
   -0.9142857143     1.1537410325    66.1044918138    67.1934031615     0.0190050883     0.0001210732 25078.4398913401
   -0.9122448980     1.1487311539    65.8174469161    66.9166758894     0.0191851648     0.0001210813 25080.8394315569
   -0.9102040816     1.1437765557    65.5335693460    66.6429003417     0.0193614784     0.0001210890 25083.2348708714
   -0.9081632653     1.1388753294    65.2527497676    66.3719696769     0.0195340725     0.0001210960 25085.6261852192
   -0.9061224490     1.1340256726    64.9748848997    66.1037851686     0.0197030266     0.0001211023 25088.0133469180
   -0.9040816327     1.1292258803    64.6998770572    65.8382496712     0.0198683502     0.0001211076 25090.3963250580
   -0.9020408163     1.1244743380    64.4276337361    65.5752756965     0.0200301308     0.0001211118 25092.7750810352
   -0.9000000000     1.1197695150    64.1580672368    65.3147748798     0.0201883569     0.0001211146 25095.1495677628
   -0.8979591837     1.1151099586    63.8910943224    65.0566692127     0.0203431195     0.0001211162 25097.5197390824
   -0.8959183673     1.1104942885    63.6266359071    64.8008773671     0.0204943797     0.0001211160 25099.8855435026
   -0.8938775510     1.1059211919    63.3646167727    64.5473305286     0.0206422491     0.0001211143 25102.2469246335
   -0.8918367347     1.1013894190    63.1049653087    64.2959528228     0.0207866535     0.0001211106 25104.6038216707
   -0.8897959184     1.0968977787    62.8476132749    64.0466828410     0.0209277119     0.0001211051 25106.9561698304
   -0.8877551020     1.0924451350    62.5924955840    63.7994527495     0.0210653765     0.0001210975 25109.3039007407
   -0.8857142857     1.0880304035    62.3395501007    63.5542033549     0.0211996986     0.0001210877 25111.6469427950
   -0.8836734694     1.0836525480    62.0887174586    63.3108779303     0.0213307242     0.0001210757 25113.9852214699
   -0.8816326531     1.0793105778    61.8399408902    63.0694151639     0.0214583741     0.0001210610 25116.3186596138
   -0.8795918367     1.0750035447    61.5931660703    62.8297685047     0.0215827840     0.0001210441 25118.6471777066
   -0.8775510204     1.0707305406    61.3483409720    62.5918827025     0.0217038976     0.0001210246 25120.9706940957
   -0.8755102041     1.0664906953    61.1054157324    62.3557085105     0.0218217256     0.0001210024 25123.2891252095
   -0.8734693878     1.0622831742    60.8643425293    62.1212036078     0.0219363641     0.0001209776 25125.6023883063
   -0.8714285714     1.0581071761    60.6250754655    61.8883175719     0.0220477340     0.0001209499 25127.9103992575
   -0.8693877551     1.0539619319    60.3875704629    61.6570088524     0.0221558795     0.0001209193 25130.2130655106
   -0.8673469388     1.0498467020    60.1517851626    61.4272399403     0.0222608853     0.0001208860 25132.5102944939
   -0.8653061224     1.0457607758    59.9176788330    61.1989671593     0.0223627000     0.0001208498 25134.8019939020
   -0.8632653061     1.0417034691    59.6852122830    60.9721506303     0.0224613114     0.0001208104 25137.0880717223
   -0.8612244898     1.0376741234    59.4543477825    60.7467593474     0.0225568371     0.0001207682 25139.3684362559
   -0.8591836735     1.0336721045    59.2250489867    60.5227581388     0.0226492974     0.0001207231 25141.6429961372
   -0.8571428571     1.0296968008    58.9972808661    60.3001045252     0.0227385624     0.0001206746 25143.9116603497
   -0.8551020408     1.0257476230    58.7710096411    60.0787735377     0.0228247858     0.0001206232 25146.1743382392
   -0.8530612245     1.0218240020    58.5462027200    59.8587349026     0.0229080081     0.0001205689 25148.4309395259
   -0.8510204082     1.0179253889    58.3228286418    59.6399585194     0.0229882530     0.0001205116 25150.6813743129
   -0.8489795918     1.0140512533    58.1008570218    59.4224068142     0.0230653951     0.0001204510 25152.9255530943
   -0.8469387755     1.0102010827    57.8802585008    59.2060599325     0.0231396002     0.0001203874 25155.1633867611
   -0.8448979592     1.0063743820    57.6610046973    58.9908916527     0.0232109061     0.0001203209 25157.3947866056
   -0.8428571429     1.0025706719    57.4430681625    58.7768761276     0.0232793406     0.0001202516 25159.6196643247
   -0.8408163265     0.9987894889    57.2264223382    58.5639853245     0.0233448781     0.0001201792 25161.8379341593
   -0.8387755102     0.9950303845    57.0110415164    58.3521932772     0.0234075140     0.0001201036 25164.0495173227
   -0.8367346939     0.9912929239    56.7969008020    58.1414821715     0.0234673720     0.0001200253 25166.2543285694
   -0.8346938776     0.9875766864    56.5839760772    57.9318297486     0.0235244844     0.0001199442 25168.4522847861
   -0.8326530612     0.9838812640    56.3722439680    57.7232145504     0.0235788848     0.0001198604 25170.6433059163
   -0.8306122449     0.9802062611    56.1616818123    57.5156158869     0.0236306075     0.0001197738 25172.8273148102
   -0.8285714286     0.9765512941    55.9522676300    57.3090072929     0.0236795742     0.0001196843 25175.0042370841
   -0.8265306122     0.9729159908    55.7439800947    57.1033759328     0.0237259332     0.0001195922 25177.1740009867
   -0.8244897959     0.9692999900    55.5367985066    56.8987036558     0.0237697290     0.0001194975 25179.3365372739
   -0.8224489796     0.9657029407    55.3307027670    56.6949725662     0.0238109999     0.0001194004 25181.4917790905
   -0.8204081633     0.9621245024    55.1256733545    56.4921653926     0.0238497853     0.0001193008 25183.6396618577
   -0.8183673469     0.9585643440    54.9216913014    56.2902654632     0.0238861252     0.0001191989 25185.7801231677
   -0.8163265306     0.9550221437    54.7187381727    56.0892563974     0.0239200555     0.0001190947 25187.9131026835
   -0.8142857143     0.9514975886    54.5167960447    55.8891183449     0.0239515425     0.0001189879 25190.0385420894
   -0.8122448980     0.9479903746    54.3158474857    55.6898412203     0.0239807146     0.0001188791 25192.1563861990
   -0.8102040816     0.9445002057    54.1158755372    55.4914105209     0.0240076144     0.0001187681 25194.2665818136
   -0.8081632653     0.9410267938    53.9168636960    55.2938122291     0.0240322855     0.0001186552 25196.3690785677
   -0.8061224490     0.9375698586    53.7187958976    55.0970327927     0.0240547717     0.0001185403 25198.4638293995
   -0.8040816327     0.9341291270    53.5216564995    54.9010591049     0.0240751172     0.0001184236 25200.5507903999
   -0.8020408163     0.9307043332    53.3254302661    54.7058784864     0.0240933666     0.0001183051 25202.6299206695
   -0.8000000000     0.9272952180    53.1301023542    54.5114786665     0.0241095649     0.0001181848 25204.7011821829
   -0.7979591837     0.9239015290    52.9356582985    54.3178477666     0.0241237571     0.0001180630 25206.7645396601
   -0.7959183673     0.9205230201    52.7420839987    54.1249742827     0.0241359886     0.0001179396 25208.8199604443
   -0.7938775510     0.9171594514    52.5493657065    53.9328451890     0.0241462721     0.0001178146 25210.8674143863
   -0.7918367347     0.9138105888    52.3574900132    53.7414514673     0.0241546841     0.0001176883 25212.9068737341
   -0.7897959184     0.9104762040    52.1664438387    53.5507830138     0.0241612766     0.0001175606 25214.9383130282
   -0.7877551020     0.9071560743    51.9762144194    53.3608296578     0.0241660948     0.0001174317 25216.9617090027
   -0.7857142857     0.9038499823    51.7867892983    53.1715815270     0.0241691838     0.0001173017 25218.9770404900
   -0.7836734694     0.9005577156    51.5981563144    52.9830290346     0.0241705887     0.0001171707 25220.9842902331
   -0.7816326531     0.8972790671    51.4103035930    52.7951628664     0.0241703540     0.0001170387 25222.9834448663
   -0.7795918367     0.8940138344    51.2232195364    52.6079739681     0.0241685242     0.0001169057 25224.9744915607
   -0.7775510204     0.8907618196    51.0368928148    52.4214535333     0.0241651432     0.0001167720 25226.9574201586
   -0.7755102041     0.8875228296    50.8513123577    52.2355929927     0.0241602549     0.0001166375 25228.9322230815
   -0.7734693878     0.8842966755    50.6664673458    52.0503840026     0.0241539022     0.0001165023 25230.8988952243
   -0.7714285714     0.8810831728    50.4823472028    51.8658184344     0.0241461281     0.0001163666 25232.8574338536
   -0.7693877551     0.8778821410    50.2989415880    51.6818883650     0.0241369746     0.0001162304 25234.8078385109
   -0.7673469388     0.8746934035    50.1162403889    51.4985860665     0.0241264835     0.0001160937 25236.7501109208
   -0.7653061224     0.8715167878    49.9342337142    51.3159039974     0.0241146956     0.0001159566 25238.6842549030
   -0.7632653061     0.8683521249    49.7529118872    51.1338347936     0.0241016514     0.0001158193 25240.6102762877
   -0.7612244898     0.8651992496    49.5722654391    50.9523712599     0.0240873906     0.0001156817 25242.5281828362
   -0.7591836735     0.8620580001    49.3922851027    50.7715063619     0.0240719521     0.0001155440 25244.4379841637
   -0.7571428571     0.8589282182    49.2129618067    50.5912332185     0.0240553741     0.0001154062 25246.3396916666
   -0.7551020408     0.8558097488    49.0342866700    50.4115450946     0.0240376942     0.0001152684 25248.2333184521
   -0.7530612245     0.8527024401    48.8562509955    50.2324353937     0.0240189489     0.0001151306 25250.1188792714
   -0.7510204082     0.8496061434    48.6788462656    50.0538976518     0.0239991741     0.0001149929 25251.9963904561
   -0.7489795918     0.8465207132    48.5020641364    49.8759255310     0.0239784048     0.0001148554 25253.8658696500
   -0.7469387755     0.8434460067    48.3258964330    49.6985128131     0.0239566752     0.0001147181 25255.7273366834
   -0.7448979592     0.8403818842    48.1503351447    49.5216533949     0.0239340186     0.0001145810 25257.5808135297
   -0.7428571429     0.8373282086    47.9753724206    49.3453412818     0.0239104673     0.0001144444 25259.4263233424
   -0.7408163265     0.8342848456    47.8010005647    49.1695705835     0.0238860529     0.0001143081 25261.2638904043
   -0.7387755102     0.8312516635    47.6272120320    48.9943355087     0.0238608059     0.0001141722 25263.0935400829
   -0.7367346939     0.8282285332    47.4539994242    48.8196303612     0.0238347562     0.0001140368 25264.9152987900
   -0.7346938776     0.8252153280    47.2813554856    48.6454495351     0.0238079325     0.0001139020 25266.7291939407
   -0.7326530612     0.8222119238    47.1092730996    48.4717875112     0.0237803626     0.0001137677 25268.5352539157
   -0.7306122449     0.8192181987    46.9377452847    48.2986388531     0.0237520735     0.0001136341 25270.3335080247
   -0.7285714286     0.8162340331    46.7667651908    48.1259982039     0.0237230914     0.0001135011 25272.1239864711
   -0.7265306122     0.8132593097    46.5963260961    47.9538602829     0.0236934413     0.0001133688 25273.9067203185
   -0.7244897959     0.8102939134    46.4264214035    47.7822198824     0.0236631475     0.0001132373 25275.6817414580
   -0.7224489796     0.8073377312    46.2570446372    47.6110718651     0.0236322333     0.0001131065 25277.4490825780
   -0.7204081633     0.8043906520    46.0881894401    47.4404115991     0.0236007289     0.0001129765 25279.2087771339
   -0.7183673469     0.8014525670    45.9198495701    47.2702339257     0.0235686532     0.0001128475 25280.9608593200
   -0.7163265306     0.7985233692    45.7520188977    47.1005337613     0.0235360244     0.0001127192 25282.7053640419
   -0.7142857143     0.7956029535    45.5846914028    46.9313062251     0.0235028624     0.0001125919 25284.4423268905
   -0.7122448980     0.7926912167    45.4178611722    46.7625464940     0.0234691863     0.0001124655 25286.1717841167
   -0.7102040816     0.7897880574    45.2515223968    46.5942498014     0.0234350142     0.0001123401 25287.8937726074
   -0.7081632653     0.7868933760    45.0856693690    46.4264114353     0.0234003635     0.0001122156 25289.6083294201
   -0.7061224490     0.7840070746    44.9202964804    46.2590267363     0.0233652508     0.0001120921 25291.3154904081
   -0.7040816327     0.7811290570    44.7553982192    46.0920910971     0.0233296918     0.0001119697 25293.0152930240
   -0.7020408163     0.7782592286    44.5909691678    45.9255999608     0.0232937016     0.0001118482 25294.7077749352
   -0.7000000000     0.7753974966    44.4270040008    45.7595488197     0.0232572945     0.0001117278 25296.3929738007
   -0.6979591837     0.7725437695    44.2634974825    45.5939332143     0.0232204840     0.0001116085 25298.0709272668
   -0.6959183673     0.7696979575    44.1004444649    45.4287487756     0.0231832837     0.0001114902 25299.7416729636
   -0.6938775510     0.7668599722    43.9378398857    45.2639927865     0.0231457345     0.0001113731 25301.4052485019
   -0.6918367347     0.7640297268    43.7756787663    45.0996593679     0.0231078207     0.0001112571 25303.0616914698
