shape model output for Uranus's 1-bar isobaric surface. models are described in Mankovich et al. 2026, PSJ.
this model assumes the composite asymmetric wind profile described in Sromovsky et al. (2015, Icarus 258) Section 4.5 and Table 6.
these solutions vary the (north) polar radius to fit the pair of Voyager 2 occultations reported in Lindal et al. 1987 to a Gaussian standard deviation of 5 km.
mu=sin(phi), phi [radians], and lat_deg [degrees] refer to planetocentric latitude; lat_pg_deg gives planetographic latitude in degrees.
              mu          phi_rad          lat_deg       lat_pg_deg          psi_rad    omega_rad_s-1             r_km 
   -1.0000000000     1.5707963268    90.0000000000    90.0000000000     0.0000000000     0.0001211146 24975.0736145435
   -0.9998144712     1.5515331758    88.8963027451    88.9521650880     0.0009749818     0.0001211146 24975.3081722143
   -0.9996289425     1.5435536961    88.4391122386    88.5180977120     0.0013785566     0.0001211146 24975.5426961423
   -0.9994434137     1.5374305386    88.0882811581    88.1849988485     0.0016880421     0.0001211146 24975.7771862478
   -0.9992578850     1.5322682374    87.7925030866    87.9041606971     0.0019487929     0.0001211146 24976.0116425306
   -0.9990723562     1.5277199472    87.5319052508    87.6567172561     0.0021783804     0.0001211146 24976.2460649948
   -0.9988868275     1.5236077873    87.2962958471    87.4329931639     0.0023858183     0.0001211146 24976.4804536434
   -0.9987012987     1.5198260904    87.0796205724    87.2272409705     0.0025764620     0.0001211146 24976.7148084777
   -0.9985157699     1.5163060092    86.8779347757    87.0357159972     0.0027538018     0.0001211146 24976.9491294979
   -0.9983302412     1.5129997231    86.6884985354    86.8558172521     0.0029202625     0.0001211146 24977.1834167030
   -0.9981447124     1.5098724146    86.5093169626    86.6856510202     0.0030776099     0.0001211146 24977.4176700913
   -0.9979591837     1.5068978001    86.3388841007    86.5237877386     0.0032271773     0.0001211146 24977.6518896603
   -0.9959183673     1.4804147767    84.8215186329    85.0824349512     0.0045538488     0.0001211146 24980.2260717682
   -0.9938775510     1.4600831244    83.6566007642    83.9754499943     0.0055649689     0.0001211146 24982.7961551801
   -0.9918367347     1.4429339318    82.6740244067    83.0413836293     0.0064116280     0.0001211146 24985.3621345177
   -0.9897959184     1.4278174270    81.8079124837    82.2177199407     0.0071524894     0.0001211146 24987.9240022940
   -0.9877551020     1.4141440401    81.0244851196    81.4724067866     0.0078177079     0.0001211146 24990.4817509047
   -0.9857142857     1.4015635991    80.3036789465    80.7864094433     0.0084252366     0.0001211146 24993.0353745251
   -0.9836734694     1.3898479862    79.6324237728    80.1473294167     0.0089867988     0.0001211146 24995.5848677190
   -0.9816326531     1.3788387766    79.0016425268    79.5465572199     0.0095105555     0.0001211146 24998.1302249747
   -0.9795918367     1.3684206412    78.4047273409    78.9778261724     0.0100024615     0.0001211146 25000.6714405496
   -0.9775510204     1.3585065303    77.8366906282    78.4364068143     0.0104670220     0.0001211146 25003.2085084257
   -0.9755102041     1.3490288258    77.2936581616    77.9186258909     0.0109077446     0.0001211146 25005.7414223097
   -0.9734693878     1.3399337634    76.7725494708    77.4215630985     0.0113274247     0.0001211146 25008.2701756489
   -0.9714285714     1.3311777582    76.2708673246    76.9428513474     0.0117283337     0.0001211146 25010.7947616520
   -0.9693877551     1.3227248956    75.7865539757    76.4805403750     0.0121123476     0.0001211146 25013.3151746341
   -0.9673469388     1.3145451659    75.3178899826    76.0330007595     0.0124810376     0.0001211146 25015.8314095242
   -0.9653061224     1.3066131882    74.8634211408    75.5988546045     0.0128357354     0.0001211146 25018.3434590165
   -0.9632653061     1.2989072697    74.4219045316    75.1769243609     0.0131775819     0.0001211146 25020.8513163246
   -0.9612244898     1.2914086960    73.9922679079    74.7661943036     0.0135075638     0.0001211146 25023.3549750573
   -0.9591836735     1.2841011890    73.5735785965    74.3657810360     0.0138265409     0.0001211146 25025.8544290843
   -0.9571428571     1.2769704845    73.1650193268    73.9749105649     0.0141352687     0.0001211146 25028.3496724396
   -0.9551020408     1.2700040004    72.7658691871    73.5929002399     0.0144344149     0.0001211146 25030.8406992503
   -0.9530612245     1.2631905710    72.3754884407    73.2191443542     0.0147245734     0.0001211146 25033.3275036850
   -0.9510204082     1.2565202341    71.9933062850    72.8531025367     0.0150062755     0.0001211146 25035.8100799152
   -0.9489795918     1.2499840563    71.6188108859    72.4942903029     0.0152799984     0.0001211146 25038.2884220870
   -0.9469387755     1.2435739909    71.2515411916    72.1422712921     0.0155461730     0.0001211146 25040.7625243004
   -0.9448979592     1.2372827589    70.8910801509    71.7966508383     0.0158051901     0.0001211146 25043.2323805935
   -0.9428571429     1.2311037506    70.5370490537    71.4570706041     0.0160574052     0.0001211146 25045.6979849322
   -0.9408163265     1.2250309424    70.1891027733    71.1232040707     0.0163031432     0.0001211146 25048.1593312012
   -0.9387755102     1.2190588266    69.8469257429    70.7947527235     0.0165427016     0.0001211146 25050.6164131991
   -0.9367346939     1.2131823517    69.5102285299    70.4714428049     0.0167763539     0.0001211146 25053.0692246342
   -0.9346938776     1.2073968710    69.1787449051    70.1530225363     0.0170043525     0.0001211146 25055.5177591223
   -0.9326530612     1.2016980990    68.8522293213    69.8392597281     0.0172269304     0.0001211146 25057.9620101854
   -0.9306122449     1.1960820730    68.5304547326    69.5299397129     0.0174443037     0.0001211146 25060.4019632622
   -0.9285714286     1.1905451201    68.2132107017    69.2248635513     0.0176566731     0.0001211146 25062.8376014559
   -0.9265306122     1.1850838286    67.9003017483    68.9238464707     0.0178642254     0.0001211146 25065.2689448084
   -0.9244897959     1.1796950225    67.5915459031    68.6267164909     0.0180671351     0.0001211146 25067.6960040019
   -0.9224489796     1.1743757395    67.2867734365    68.3333132195     0.0182655650     0.0001211146 25070.1187786890
   -0.9204081633     1.1691232113    66.9858257369    68.0434867894     0.0184596677     0.0001211146 25072.5372588312
   -0.9183673469     1.1639348463    66.6885543185    67.7570969183     0.0186495866     0.0001211146 25074.9514258612
   -0.9163265306     1.1588082142    66.3948199388    67.4740120731     0.0188354560     0.0001211146 25077.3612536961
   -0.9142857143     1.1537410325    66.1044918138    67.1941087260     0.0190174027     0.0001211146 25079.7667096221
   -0.9122448980     1.1487311539    65.8174469161    66.9172276600     0.0191947950     0.0001211116 25082.1677550705
   -0.9102040816     1.1437765557    65.5335693460    66.6432867056     0.0193682217     0.0001211076 25084.5643462977
   -0.9081632653     1.1388753294    65.2527497676    66.3721979534     0.0195380566     0.0001211036 25086.9564151573
   -0.9061224490     1.1340256726    64.9748848997    66.1038732585     0.0197045641     0.0001211003 25089.3440020449
   -0.9040816327     1.1292258803    64.6998770572    65.8383181421     0.0198695453     0.0001211042 25091.7272515816
   -0.9020408163     1.1244743380    64.4276337361    65.5753391184     0.0200312378     0.0001211080 25094.1062432494
   -0.9000000000     1.1197695150    64.1580672368    65.3148534134     0.0201897275     0.0001211119 25096.4809946614
   -0.8979591837     1.1151099586    63.8910943224    65.0567605594     0.0203447138     0.0001211142 25098.8514674114
   -0.8959183673     1.1104942885    63.6266359071    64.8009525100     0.0204956912     0.0001211130 25101.2175490759
   -0.8938775510     1.1059211919    63.3646167727    64.5474131480     0.0206436911     0.0001211117 25103.5792099099
   -0.8918367347     1.1013894190    63.1049653087    64.2960749419     0.0207887849     0.0001211105 25105.9364520161
   -0.8897959184     1.0968977787    62.8476132749    64.0468140222     0.0209300014     0.0001211055 25108.2891904544
   -0.8877551020     1.0924451350    62.5924955840    63.7995401897     0.0210669026     0.0001210950 25110.6372633330
   -0.8857142857     1.0880304035    62.3395501007    63.5542767493     0.0212009795     0.0001210843 25112.9805753672
   -0.8836734694     1.0836525480    62.0887174586    63.3109734715     0.0213323917     0.0001210737 25115.3191316257
   -0.8816326531     1.0793105778    61.8399408902    63.0695246627     0.0214602853     0.0001210599 25117.6529043451
   -0.8795918367     1.0750035447    61.5931660703    62.8298158377     0.0215836101     0.0001210391 25119.9816891310
   -0.8775510204     1.0707305406    61.3483409720    62.5919091336     0.0217043589     0.0001210183 25122.3053919727
   -0.8755102041     1.0664906953    61.1054157324    62.3557613628     0.0218226480     0.0001209976 25124.6240322487
   -0.8734693878     1.0622831742    60.8643425293    62.1212946129     0.0219379524     0.0001209751 25126.9375536411
   -0.8714285714     1.0581071761    60.6250754655    61.8883396061     0.0220481186     0.0001209433 25129.2457581491
   -0.8693877551     1.0539619319    60.3875704629    61.6569973619     0.0221556790     0.0001209107 25131.5485348383
   -0.8673469388     1.0498467020    60.1517851626    61.4272440009     0.0222609562     0.0001208784 25133.8458743352
   -0.8653061224     1.0457607758    59.9176788330    61.1990294222     0.0223637867     0.0001208455 25136.1377915143
   -0.8632653061     1.0417034691    59.6852122830    60.9721838781     0.0224618917     0.0001208044 25138.4240770380
   -0.8612244898     1.0376741234    59.4543477825    60.7467480951     0.0225566407     0.0001207596 25140.7045795501
   -0.8591836735     1.0336721045    59.2250489867    60.5227560799     0.0226492615     0.0001207150 25142.9792406016
   -0.8571428571     1.0296968008    58.9972808661    60.3001749939     0.0227397923     0.0001206708 25145.2480974275
   -0.8551020408     1.0257476230    58.7710096411    60.0788781185     0.0228266111     0.0001206213 25147.5111077556
   -0.8530612245     1.0218240020    58.5462027200    59.8587613178     0.0229084692     0.0001205625 25149.7679807021
   -0.8510204082     1.0179253889    58.3228286418    59.6399483100     0.0229880749     0.0001205032 25152.0185605354
   -0.8489795918     1.0140512533    58.1008570218    59.4224256432     0.0230657237     0.0001204442 25154.2628540670
   -0.8469387755     1.0102010827    57.8802585008    59.2061470000     0.0231411198     0.0001203845 25156.5009325296
   -0.8448979592     1.0063743820    57.6610046973    58.9909499115     0.0232119229     0.0001203163 25158.7325756166
   -0.8428571429     1.0025706719    57.4430681625    58.7768612941     0.0232790817     0.0001202428 25160.9575967087
   -0.8408163265     0.9987894889    57.2264223382    58.5639583294     0.0233444069     0.0001201698 25163.1759411567
   -0.8387755102     0.9950303845    57.0110415164    58.3522170623     0.0234079291     0.0001200971 25165.3876732270
   -0.8367346939     0.9912929239    56.7969008020    58.1415590569     0.0234687139     0.0001200217 25167.5926760059
   -0.8346938776     0.9875766864    56.5839760772    57.9318588156     0.0235249917     0.0001199380 25169.7907913373
   -0.8326530612     0.9838812640    56.3722439680    57.7231933251     0.0235785143     0.0001198513 25171.9819178925
   -0.8306122449     0.9802062611    56.1616818123    57.5156008962     0.0236303458     0.0001197652 25174.1660198634
   -0.8285714286     0.9765512941    55.9522676300    57.3090610661     0.0236805127     0.0001196794 25176.3431654949
   -0.8265306122     0.9729159908    55.7439800947    57.1034873607     0.0237278780     0.0001195905 25178.5131850943
   -0.8244897959     0.9692999900    55.5367985066    56.8987302756     0.0237701936     0.0001194912 25180.6759132131
   -0.8224489796     0.9657029407    55.3307027670    56.6949441182     0.0238105034     0.0001193910 25182.8312571006
   -0.8204081633     0.9621245024    55.1256733545    56.4921348320     0.0238492519     0.0001192913 25184.9791929757
   -0.8183673469     0.9585643440    54.9216913014    56.2902848620     0.0238864638     0.0001191922 25187.1197743475
   -0.8163265306     0.9550221437    54.7187381727    56.0893296236     0.0239213335     0.0001190909 25189.2529589347
   -0.8142857143     0.9514975886    54.5167960447    55.8890990128     0.0239512051     0.0001189791 25191.3785500642
   -0.8122448980     0.9479903746    54.3158474857    55.6897780781     0.0239796125     0.0001188679 25193.4964447885
   -0.8102040816     0.9445002057    54.1158755372    55.4913511637     0.0240065785     0.0001187572 25195.6066397722
   -0.8081632653     0.9410267938    53.9168636960    55.2938030470     0.0240321253     0.0001186470 25197.7092235443
   -0.8061224490     0.9375698586    53.7187958976    55.0970581243     0.0240552138     0.0001185339 25199.8041301817
   -0.8040816327     0.9341291270    53.5216564995    54.9010499384     0.0240749572     0.0001184154 25201.8912177992
   -0.8020408163     0.9307043332    53.3254302661    54.7058410146     0.0240927126     0.0001182953 25203.9704197455
   -0.8000000000     0.9272952180    53.1301023542    54.5114541520     0.0241091370     0.0001181758 25206.0417443826
   -0.7979591837     0.9239015290    52.9356582985    54.3178760454     0.0241242507     0.0001180568 25208.1052597468
   -0.7959183673     0.9205230201    52.7420839987    54.1250937118     0.0241380731     0.0001179383 25210.1608792111
   -0.7938775510     0.9171594514    52.5493657065    53.9328872867     0.0241470068     0.0001178092 25212.2085053518
   -0.7918367347     0.9138105888    52.3574900132    53.7414349971     0.0241543966     0.0001176797 25214.2480799966
   -0.7897959184     0.9104762040    52.1664438387    53.5507418787     0.0241605586     0.0001175508 25216.2795825357
   -0.7877551020     0.9071560743    51.9762144194    53.3607962254     0.0241655113     0.0001174223 25218.3030443721
   -0.7857142857     0.9038499823    51.7867892983    53.1715749542     0.0241690691     0.0001172938 25220.3184678910
   -0.7836734694     0.9005577156    51.5981563144    52.9830178388     0.0241703933     0.0001171625 25222.3257962199
   -0.7816326531     0.8972790671    51.4103035930    52.7951115202     0.0241694578     0.0001170283 25224.3249969460
   -0.7795918367     0.8940138344    51.2232195364    52.6079088780     0.0241673881     0.0001168947 25226.3160622993
   -0.7775510204     0.8907618196    51.0368928148    52.4213995459     0.0241642010     0.0001167615 25228.2990158515
   -0.7755102041     0.8875228296    50.8513123577    52.2355733974     0.0241599128     0.0001166289 25230.2738814503
   -0.7734693878     0.8842966755    50.6664673458    52.0503797953     0.0241538288     0.0001164946 25232.2406279070
   -0.7714285714     0.8810831728    50.4823472028    51.8657909150     0.0241456478     0.0001163576 25234.1992328507
   -0.7693877551     0.8778821410    50.2989415880    51.6818393737     0.0241361196     0.0001162202 25236.1496862143
   -0.7673469388     0.8746934035    50.1162403889    51.4985330676     0.0241255585     0.0001160834 25238.0919931995
   -0.7653061224     0.8715167878    49.9342337142    51.3158629718     0.0241139796     0.0001159470 25240.0261924167
   -0.7632653061     0.8683521249    49.7529118872    51.1338163988     0.0241013304     0.0001158108 25241.9522758526
   -0.7612244898     0.8651992496    49.5722654391    50.9523408453     0.0240868598     0.0001156726 25243.8702317714
   -0.7591836735     0.8620580001    49.3922851027    50.7714453407     0.0240708871     0.0001155333 25245.7800589425
   -0.7571428571     0.8589282182    49.2129618067    50.5911521045     0.0240539584     0.0001153945 25247.6817662529
   -0.7551020408     0.8558097488    49.0342866700    50.4114530482     0.0240360876     0.0001152561 25249.5753723369
   -0.7530612245     0.8527024401    48.8562509955    50.2323402535     0.0240172884     0.0001151181 25251.4608998981
   -0.7510204082     0.8496061434    48.6788462656    50.0537971231     0.0239974195     0.0001149802 25253.3383644922
   -0.7489795918     0.8465207132    48.5020641364    49.8758090239     0.0239763714     0.0001148418 25255.2077840311
   -0.7469387755     0.8434460067    48.3258964330    49.6983770488     0.0239543057     0.0001147035 25257.0691776420
   -0.7448979592     0.8403818842    48.1503351447    49.5215013754     0.0239313653     0.0001145656 25258.9225655785
   -0.7428571429     0.8373282086    47.9753724206    49.3451748668     0.0239075628     0.0001144282 25260.7679691766
   -0.7408163265     0.8342848456    47.8010005647    49.1693905287     0.0238829103     0.0001142912 25262.6054108124
   -0.7387755102     0.8312516635    47.6272120320    48.9941415062     0.0238574200     0.0001141546 25264.4349138621
   -0.7367346939     0.8282285332    47.4539994242    48.8194210790     0.0238311036     0.0001140184 25266.2565026626
   -0.7346938776     0.8252153280    47.2813554856    48.6452226584     0.0238039727     0.0001138827 25268.0702024752
   -0.7326530612     0.8222119238    47.1092730996    48.4715397838     0.0237760389     0.0001137473 25269.8760394494
   -0.7306122449     0.8192181987    46.9377452847    48.2983661185     0.0237473134     0.0001136123 25271.6740405896
   -0.7285714286     0.8162340331    46.7667651908    48.1256973174     0.0237178399     0.0001134779 25273.4642364137
   -0.7265306122     0.8132593097    46.5963260961    47.9535361069     0.0236877833     0.0001133444 25275.2466656739
   -0.7244897959     0.8102939134    46.4264214035    47.7818841588     0.0236572880     0.0001132122 25277.0213541143
   -0.7224489796     0.8073377312    46.2570446372    47.6107171310     0.0236260420     0.0001130804 25278.7883284609
   -0.7204081633     0.8043906520    46.0881894401    47.4400292242     0.0235940552     0.0001129490 25280.5476182584
   -0.7183673469     0.8014525670    45.9198495701    47.2698148003     0.0235613381     0.0001128180 25282.2992557796
   -0.7163265306     0.7985233692    45.7520188977    47.1000683173     0.0235279009     0.0001126873 25284.0432759382
   -0.7142857143     0.7956029535    45.5846914028    46.9308114915     0.0234942277     0.0001125584 25285.7797162045
   -0.7122448980     0.7926912167    45.4178611722    46.7620268450     0.0234601167     0.0001124307 25287.5086169558
   -0.7102040816     0.7897880574    45.2515223968    46.5936970843     0.0234253674     0.0001123035 25289.2300144488
   -0.7081632653     0.7868933760    45.0856693690    46.4258138334     0.0233899334     0.0001121766 25290.9439275804
   -0.7061224490     0.7840070746    44.9202964804    46.2583720127     0.0233538237     0.0001120501 25292.6503804876
   -0.7040816327     0.7811290570    44.7553982192    46.0913727359     0.0233171540     0.0001119242 25294.3494055085
   -0.7020408163     0.7782592286    44.5909691678    45.9248364241     0.0232803754     0.0001118003 25296.0410429443
   -0.7000000000     0.7753974966    44.4270040008    45.7587782873     0.0232438462     0.0001116795 25297.7253629539
   -0.6979591837     0.7725437695    44.2634974825    45.5931417481     0.0232066703     0.0001115590 25299.4024210335
   -0.6959183673     0.7696979575    44.1004444649    45.4279221424     0.0231688562     0.0001114388 25301.0722371952
   -0.6938775510     0.7668599722    43.9378398857    45.2631148203     0.0231304111     0.0001113190 25302.7348312140
   -0.6918367347     0.7640297268    43.7756787663    45.0987153412     0.0230913444     0.0001111994 25304.3902226464
