shape model output for Uranus's 1-bar isobaric surface. models are described in Mankovich et al. 2026, PSJ.
this model assumes the composite asymmetric wind profile described in Sromovsky et al. (2015, Icarus 258) Section 4.5 and Table 6.
these solutions vary the (north) polar radius to fit the pair of Voyager 2 occultations reported in Lindal et al. 1987 to a Gaussian standard deviation of 5 km.
mu=sin(phi), phi [radians], and lat_deg [degrees] refer to planetocentric latitude; lat_pg_deg gives planetographic latitude in degrees.
              mu          phi_rad          lat_deg       lat_pg_deg          psi_rad    omega_rad_s-1             r_km 
   -1.0000000000     1.5707963268    90.0000000000    90.0000000000     0.0000000000     0.0001211146 24966.2164697380
   -0.9998144712     1.5515331758    88.8963027451    88.9521268309     0.0009743141     0.0001211146 24966.4507836499
   -0.9996289425     1.5435536961    88.4391122386    88.5180436164     0.0013776124     0.0001211146 24966.6850638444
   -0.9994434137     1.5374305386    88.0882811581    88.1849326052     0.0016868860     0.0001211146 24966.9193102418
   -0.9992578850     1.5322682374    87.7925030866    87.9040842173     0.0019474581     0.0001211146 24967.1535228419
   -0.9990723562     1.5277199472    87.5319052508    87.6566317620     0.0021768883     0.0001211146 24967.3877016489
   -0.9988868275     1.5236077873    87.2962958471    87.4328995238     0.0023841839     0.0001211146 24967.6218466657
   -0.9987012987     1.5198260904    87.0796205724    87.2271398428     0.0025746970     0.0001211146 24967.8559578937
   -0.9985157699     1.5163060092    86.8779347757    87.0356079034     0.0027519152     0.0001211146 24968.0900353331
   -0.9983302412     1.5129997231    86.6884985354    86.8557026185     0.0029182618     0.0001211146 24968.3240789828
   -0.9981447124     1.5098724146    86.5093169626    86.6855302040     0.0030755012     0.0001211146 24968.5580888411
   -0.9979591837     1.5068978001    86.3388841007    86.5236610445     0.0032249661     0.0001211146 24968.7920649057
   -0.9959183673     1.4804147767    84.8215186329    85.0822560754     0.0045507269     0.0001211146 24971.3635701515
   -0.9938775510     1.4600831244    83.6566007642    83.9752312810     0.0055611516     0.0001211146 24973.9309798001
   -0.9918367347     1.4429339318    82.6740244067    83.0411315020     0.0064072275     0.0001211146 24976.4942884857
   -0.9897959184     1.4278174270    81.8079124837    82.2174385255     0.0071475778     0.0001211146 24979.0534887304
   -0.9877551020     1.4141440401    81.0244851196    81.4720990294     0.0078123365     0.0001211146 24981.6085729385
   -0.9857142857     1.4015635991    80.3036789465    80.7860775877     0.0084194446     0.0001211146 24984.1595352964
   -0.9836734694     1.3898479862    79.6324237728    80.1469752481     0.0089806174     0.0001211146 24986.7063703799
   -0.9816326531     1.3788387766    79.0016425268    79.5461822049     0.0095040103     0.0001211146 24989.2490726894
   -0.9795918367     1.3684206412    78.4047273409    78.9774315451     0.0099955740     0.0001211146 24991.7876364939
   -0.9775510204     1.3585065303    77.8366906282    78.4359936332     0.0104598107     0.0001211146 24994.3220557872
   -0.9755102041     1.3490288258    77.2936581616    77.9181950774     0.0109002255     0.0001211146 24996.8523242871
   -0.9734693878     1.3399337634    76.7725494708    77.4211154655     0.0113196120     0.0001211146 24999.3784354518
   -0.9714285714     1.3311777582    76.2708673246    76.9423876191     0.0117202401     0.0001211146 25001.9003825008
   -0.9693877551     1.3227248956    75.7865539757    76.4800612027     0.0121039845     0.0001211146 25004.4181597546
   -0.9673469388     1.3145451659    75.3178899826    76.0325067335     0.0124724152     0.0001211146 25006.9317621614
   -0.9653061224     1.3066131882    74.8634211408    75.5983462632     0.0128268631     0.0001211146 25009.4411824252
   -0.9632653061     1.2989072697    74.4219045316    75.1764021984     0.0131684685     0.0001211146 25011.9464137691
   -0.9612244898     1.2914086960    73.9922679079    74.7656587760     0.0134982171     0.0001211146 25014.4474498118
   -0.9591836735     1.2841011890    73.5735785965    74.3652325658     0.0138169683     0.0001211146 25016.9442844337
   -0.9571428571     1.2769704845    73.1650193268    73.9743495454     0.0141254771     0.0001211146 25019.4369116793
   -0.9551020408     1.2700040004    72.7658691871    73.5923270386     0.0144244106     0.0001211146 25021.9253256871
   -0.9530612245     1.2631905710    72.3754884407    73.2185593156     0.0147143626     0.0001211146 25024.4095206368
   -0.9510204082     1.2565202341    71.9933062850    72.8525059848     0.0149958637     0.0001211146 25026.8894907113
   -0.9489795918     1.2499840563    71.6188108859    72.4936825432     0.0152693910     0.0001211146 25029.3652300683
   -0.9469387755     1.2435739909    71.2515411916    72.1416526136     0.0155353750     0.0001211146 25031.8367328192
   -0.9448979592     1.2372827589    70.8910801509    71.7960215149     0.0157942063     0.0001211146 25034.3039930138
   -0.9428571429     1.2311037506    70.5370490537    71.4564308960     0.0160462402     0.0001211146 25036.7670046295
   -0.9408163265     1.2250309424    70.1891027733    71.1225542256     0.0162918012     0.0001211146 25039.2257615626
   -0.9387755102     1.2190588266    69.8469257429    70.7940929776     0.0165311868     0.0001211146 25041.6802576232
   -0.9367346939     1.2131823517    69.5102285299    70.4707733839     0.0167646703     0.0001211146 25044.1304865312
   -0.9346938776     1.2073968710    69.1787449051    70.1523436563     0.0169925038     0.0001211146 25046.5764419139
   -0.9326530612     1.2016980990    68.8522293213    69.8385715962     0.0172149202     0.0001211146 25049.0181173047
   -0.9306122449     1.1960820730    68.5304547326    69.5292425286     0.0174321356     0.0001211146 25051.4555064229
   -0.9285714286     1.1905451201    68.2132107017    69.2241575075     0.0176443503     0.0001211146 25053.8886038735
   -0.9265306122     1.1850838286    67.9003017483    68.9231317508     0.0178517512     0.0001211146 25056.3174036733
   -0.9244897959     1.1796950225    67.5915459031    68.6259932704     0.0180545125     0.0001211146 25058.7418997973
   -0.9224489796     1.1743757395    67.2867734365    68.3325816673     0.0182527970     0.0001211146 25061.1620862364
   -0.9204081633     1.1691232113    66.9858257369    68.0427470688     0.0184467572     0.0001211146 25063.5779569832
   -0.9183673469     1.1639348463    66.6885543185    67.7563491880     0.0186365362     0.0001211146 25065.9895060205
   -0.9163265306     1.1588082142    66.3948199388    67.4732564890     0.0188222686     0.0001211146 25068.3967355063
   -0.9142857143     1.1537410325    66.1044918138    67.1933454405     0.0190040809     0.0001211146 25070.7996248266
   -0.9122448980     1.1487311539    65.8174469161    66.9164568654     0.0191813421     0.0001211116 25073.1981125991
   -0.9102040816     1.1437765557    65.5335693460    66.6425085604     0.0193546405     0.0001211076 25075.5921547255
   -0.9081632653     1.1388753294    65.2527497676    66.3714125992     0.0195243496     0.0001211036 25077.9817233562
   -0.9061224490     1.1340256726    64.9748848997    66.1030808189     0.0196907334     0.0001211003 25080.3668119625
   -0.9040816327     1.1292258803    64.6998770572    65.8375186296     0.0198555911     0.0001211042 25082.7475442352
   -0.9020408163     1.1244743380    64.4276337361    65.5745326580     0.0200171624     0.0001211080 25085.1240162056
   -0.9000000000     1.1197695150    64.1580672368    65.3140401278     0.0201755330     0.0001211119 25087.4962523203
   -0.8979591837     1.1151099586    63.8910943224    65.0559405907     0.0203304027     0.0001211142 25089.8642042018
   -0.8959183673     1.1104942885    63.6266359071    64.8001260340     0.0204812665     0.0001211130 25092.2277595367
   -0.8938775510     1.1059211919    63.3646167727    64.5465802822     0.0206291549     0.0001211117 25094.5869353490
   -0.8918367347     1.1013894190    63.1049653087    64.2952357986     0.0207741390     0.0001211105 25096.9417022782
   -0.8897959184     1.0968977787    62.8476132749    64.0459687736     0.0209152491     0.0001211055 25099.2919537644
   -0.8877551020     1.0924451350    62.5924955840    63.7986890358     0.0210520472     0.0001210950 25101.6375155581
   -0.8857142857     1.0880304035    62.3395501007    63.5534198022     0.0211860230     0.0001210843 25103.9783270835
   -0.8836734694     1.0836525480    62.0887174586    63.3101108398     0.0213173360     0.0001210737 25106.3144451910
   -0.8816326531     1.0793105778    61.8399408902    63.0686565029     0.0214451330     0.0001210599 25108.6457702677
   -0.8795918367     1.0750035447    61.5931660703    62.8289423706     0.0215683653     0.0001210391 25110.9720741381
   -0.8775510204     1.0707305406    61.3483409720    62.5910304613     0.0216890232     0.0001210183 25113.2933016113
   -0.8755102041     1.0664906953    61.1054157324    62.3548775808     0.0218072231     0.0001209976 25115.6094675374
   -0.8734693878     1.0622831742    60.8643425293    62.1204058508     0.0219224406     0.0001209751 25117.9205160988
   -0.8714285714     1.0581071761    60.6250754655    61.8874461328     0.0220325245     0.0001209433 25120.2262861022
   -0.8693877551     1.0539619319    60.3875704629    61.6560992837     0.0221400046     0.0001209107 25122.5266097315
   -0.8673469388     1.0498467020    60.1517851626    61.4263414062     0.0222452030     0.0001208784 25124.8214859087
   -0.8653061224     1.0457607758    59.9176788330    61.1981224091     0.0223479563     0.0001208455 25127.1109161664
   -0.8632653061     1.0417034691    59.6852122830    60.9712726971     0.0224459886     0.0001208044 25129.3947779206
   -0.8612244898     1.0376741234    59.4543477825    60.7458329061     0.0225406676     0.0001207596 25131.6728588929
   -0.8591836735     1.0336721045    59.2250489867    60.5218369661     0.0226332199     0.0001207150 25133.9450923487
   -0.8571428571     1.0296968008    58.9972808661    60.2992520405     0.0227236838     0.0001206708 25136.2115512074
   -0.8551020408     1.0257476230    58.7710096411    60.0779515034     0.0228104386     0.0001206213 25138.4720927866
   -0.8530612245     1.0218240020    58.5462027200    59.8578313056     0.0228922374     0.0001205625 25140.7265008172
   -0.8510204082     1.0179253889    58.3228286418    59.6390150013     0.0229717855     0.0001205032 25142.9746668267
   -0.8489795918     1.0140512533    58.1008570218    59.4214891250     0.0230493784     0.0001204442 25145.2166367032
   -0.8469387755     1.0102010827    57.8802585008    59.2052073606     0.0231247200     0.0001203845 25147.4523051921
   -0.8448979592     1.0063743820    57.6610046973    58.9900073923     0.0231954728     0.0001203163 25149.6815049179
   -0.8428571429     1.0025706719    57.4430681625    58.7759160856     0.0232625847     0.0001202428 25151.9041235415
   -0.8408163265     0.9987894889    57.2264223382    58.5630105087     0.0233278643     0.0001201698 25154.1201005536
   -0.8387755102     0.9950303845    57.0110415164    58.3512666979     0.0233913421     0.0001200971 25156.3294316420
   -0.8367346939     0.9912929239    56.7969008020    58.1406062885     0.0234520849     0.0001200217 25158.5321108955
   -0.8346938776     0.9875766864    56.5839760772    57.9309038898     0.0235083251     0.0001199380 25160.7279287098
   -0.8326530612     0.9838812640    56.3722439680    57.7222363739     0.0235618124     0.0001198513 25162.9167367140
   -0.8306122449     0.9802062611    56.1616818123    57.5146419841     0.0236136096     0.0001197652 25165.0984867236
   -0.8285714286     0.9765512941    55.9522676300    57.3081002550     0.0236637434     0.0001196794 25167.2732333188
   -0.8265306122     0.9729159908    55.7439800947    57.1025248039     0.0237110782     0.0001195905 25169.4409864345
   -0.8244897959     0.9692999900    55.5367985066    56.8977662571     0.0237533683     0.0001194912 25171.6014687221
   -0.8224489796     0.9657029407    55.3307027670    56.6939787240     0.0237936541     0.0001193910 25173.7545241298
   -0.8204081633     0.9621245024    55.1256733545    56.4911681242     0.0238323797     0.0001192913 25175.9001634879
   -0.8183673469     0.9585643440    54.9216913014    56.2893169036     0.0238695697     0.0001191922 25178.0384575853
   -0.8163265306     0.9550221437    54.7187381727    56.0883605230     0.0239044195     0.0001190909 25180.1693073336
   -0.8142857143     0.9514975886    54.5167960447    55.8881290552     0.0239342762     0.0001189791 25182.2925962862
   -0.8122448980     0.9479903746    54.3158474857    55.6888073271     0.0239626697     0.0001188679 25184.4082280183
   -0.8102040816     0.9445002057    54.1158755372    55.4903796792     0.0239896229     0.0001187572 25186.5161762963
   -0.8081632653     0.9410267938    53.9168636960    55.2928308832     0.0240151578     0.0001186470 25188.6164834039
   -0.8061224490     0.9375698586    53.7187958976    55.0960854057     0.0240382367     0.0001185339 25190.7091229908
   -0.8040816327     0.9341291270    53.5216564995    54.9000768503     0.0240579736     0.0001184154 25192.7939900871
   -0.8020408163     0.9307043332    53.3254302661    54.7048676526     0.0240757242     0.0001182953 25194.8709764814
   -0.8000000000     0.9272952180    53.1301023542    54.5104805704     0.0240921448     0.0001181758 25196.9400929421
   -0.7979591837     0.9239015290    52.9356582985    54.3169022934     0.0241072555     0.0001180568 25199.0013645653
   -0.7959183673     0.9205230201    52.7420839987    54.1241198521     0.0241210760     0.0001179383 25201.0548384090
   -0.7938775510     0.9171594514    52.5493657065    53.9319136025     0.0241300129     0.0001178092 25203.1003436300
   -0.7918367347     0.9138105888    52.3574900132    53.7404615529     0.0241374068     0.0001176797 25205.1377538436
   -0.7897959184     0.9104762040    52.1664438387    53.5497687237     0.0241435739     0.0001175508 25207.1670904077
   -0.7877551020     0.9071560743    51.9762144194    53.3598234082     0.0241485324     0.0001174223 25209.1883840716
   -0.7857142857     0.9038499823    51.7867892983    53.1706025364     0.0241520972     0.0001172938 25211.2016487783
   -0.7836734694     0.9005577156    51.5981563144    52.9820459398     0.0241534304     0.0001171625 25213.2068628576
   -0.7816326531     0.8972790671    51.4103035930    52.7941402565     0.0241525061     0.0001170283 25215.2039491779
   -0.7795918367     0.8940138344    51.2232195364    52.6069382948     0.0241504483     0.0001168947 25217.1928980010
   -0.7775510204     0.8907618196    51.0368928148    52.4204296881     0.0241472738     0.0001167615 25219.1737365458
   -0.7755102041     0.8875228296    50.8513123577    52.2346043095     0.0241429991     0.0001166289 25221.1464917050
   -0.7734693878     0.8842966755    50.6664673458    52.0494115690     0.0241369301     0.0001164946 25223.1111574279
   -0.7714285714     0.8810831728    50.4823472028    51.8648236583     0.0241287660     0.0001163576 25225.0676805481
   -0.7693877551     0.8778821410    50.2989415880    51.6808731484     0.0241192558     0.0001162202 25227.0160619460
   -0.7673469388     0.8746934035    50.1162403889    51.4975679156     0.0241087134     0.0001160834 25228.9563060007
   -0.7653061224     0.8715167878    49.9342337142    51.3148989310     0.0240971539     0.0001159470 25230.8884187823
   -0.7632653061     0.8683521249    49.7529118872    51.1328535124     0.0240845248     0.0001158108 25232.8124079830
   -0.7612244898     0.8651992496    49.5722654391    50.9513792069     0.0240700760     0.0001156726 25234.7282828512
   -0.7591836735     0.8620580001    49.3922851027    50.7704850252     0.0240541264     0.0001155333 25236.6360541283
   -0.7571428571     0.8589282182    49.2129618067    50.5901931525     0.0240372215     0.0001153945 25238.5357339885
   -0.7551020408     0.8558097488    49.0342866700    50.4104954992     0.0240193753     0.0001152561 25240.4273359819
   -0.7530612245     0.8527024401    48.8562509955    50.2313841456     0.0240006011     0.0001151181 25242.3108749789
   -0.7510204082     0.8496061434    48.6788462656    50.0528425035     0.0239807583     0.0001149802 25244.1863671179
   -0.7489795918     0.8465207132    48.5020641364    49.8748559464     0.0239597370     0.0001148418 25246.0538219039
   -0.7469387755     0.8434460067    48.3258964330    49.6974255563     0.0239376990     0.0001147035 25247.9132496214
   -0.7448979592     0.8403818842    48.1503351447    49.5205515023     0.0239147869     0.0001145656 25249.7646751034
   -0.7428571429     0.8373282086    47.9753724206    49.3442266472     0.0238910132     0.0001144282 25251.6081233639
   -0.7408163265     0.8342848456    47.8010005647    49.1684439966     0.0238663902     0.0001142912 25253.4436194579
   -0.7387755102     0.8312516635    47.6272120320    48.9931966951     0.0238409299     0.0001141546 25255.2711884740
   -0.7367346939     0.8282285332    47.4539994242    48.8184780221     0.0238146441     0.0001140184 25257.0908555275
   -0.7346938776     0.8252153280    47.2813554856    48.6442813884     0.0237875445     0.0001138827 25258.9026457542
   -0.7326530612     0.8222119238    47.1092730996    48.4706003325     0.0237596424     0.0001137473 25260.7065843039
   -0.7306122449     0.8192181987    46.9377452847    48.2974285175     0.0237309492     0.0001136123 25262.5026977222
   -0.7285714286     0.8162340331    46.7667651908    48.1247615956     0.0237015085     0.0001134779 25264.2910183967
   -0.7265306122     0.8132593097    46.5963260961    47.9526022817     0.0236714850     0.0001133444 25266.0715724204
   -0.7244897959     0.8102939134    46.4264214035    47.7809522388     0.0236410229     0.0001132122 25267.8443870690
   -0.7224489796     0.8073377312    46.2570446372    47.6097871451     0.0236098107     0.0001130804 25269.6094920856
   -0.7204081633     0.8043906520    46.0881894401    47.4391012012     0.0235778581     0.0001129490 25271.3669196000
   -0.7183673469     0.8014525670    45.9198495701    47.2688887688     0.0235451758     0.0001128180 25273.1167040506
   -0.7163265306     0.7985233692    45.7520188977    47.0991443055     0.0235117738     0.0001126873 25274.8588821096
   -0.7142857143     0.7956029535    45.5846914028    46.9298894970     0.0234781358     0.0001125584 25276.5934926114
   -0.7122448980     0.7926912167    45.4178611722    46.7611068784     0.0234440602     0.0001124307 25278.3205764829
   -0.7102040816     0.7897880574    45.2515223968    46.5927791681     0.0234093468     0.0001123035 25280.0401567714
   -0.7081632653     0.7868933760    45.0856693690    46.4248979927     0.0233739489     0.0001121766 25281.7522477384
   -0.7061224490     0.7840070746    44.9202964804    46.2574582748     0.0233378759     0.0001120501 25283.4568993712
   -0.7040816327     0.7811290570    44.7553982192    46.0904611223     0.0233012434     0.0001119242 25285.1541582441
   -0.7020408163     0.7782592286    44.5909691678    45.9239269274     0.0232645017     0.0001118003 25286.8440669175
   -0.7000000000     0.7753974966    44.4270040008    45.7578708744     0.0232280089     0.0001116795 25288.5266640460
   -0.6979591837     0.7725437695    44.2634974825    45.5922364416     0.0231908697     0.0001115590 25290.2019844837
   -0.6959183673     0.7696979575    44.1004444649    45.4270189653     0.0231530928     0.0001114388 25291.8700593861
   -0.6938775510     0.7668599722    43.9378398857    45.2622137965     0.0231146853     0.0001113190 25293.5309163079
   -0.6918367347     0.7640297268    43.7756787663    45.0978164944     0.0230756565     0.0001111994 25295.1845792980
