shape model output for Uranus's 1-bar isobaric surface. models are described in Mankovich et al. 2026, PSJ.
this model assumes the composite asymmetric wind profile described in Sromovsky et al. (2015, Icarus 258) Section 4.5 and Table 6.
these solutions vary the (north) polar radius to fit the pair of Voyager 2 occultations reported in Lindal et al. 1987 to a Gaussian standard deviation of 5 km.
mu=sin(phi), phi [radians], and lat_deg [degrees] refer to planetocentric latitude; lat_pg_deg gives planetographic latitude in degrees.
              mu          phi_rad          lat_deg       lat_pg_deg          psi_rad    omega_rad_s-1             r_km 
   -1.0000000000     1.5707963268    90.0000000000    90.0000000000     0.0000000000     0.0001211146 24960.2250760694
   -0.9998144712     1.5515331758    88.8963027451    88.9521009754     0.0009738628     0.0001211146 24960.4592252539
   -0.9996289425     1.5435536961    88.4391122386    88.5180070567     0.0013769743     0.0001211146 24960.6933407384
   -0.9994434137     1.5374305386    88.0882811581    88.1848878355     0.0016861046     0.0001211146 24960.9274224428
   -0.9992578850     1.5322682374    87.7925030866    87.9040325295     0.0019465560     0.0001211146 24961.1614703671
   -0.9990723562     1.5277199472    87.5319052508    87.6565739819     0.0021758798     0.0001211146 24961.3954845155
   -0.9988868275     1.5236077873    87.2962958471    87.4328362384     0.0023830794     0.0001211146 24961.6294648909
   -0.9987012987     1.5198260904    87.0796205724    87.2270714971     0.0025735041     0.0001211146 24961.8634114947
   -0.9985157699     1.5163060092    86.8779347757    87.0355348497     0.0027506402     0.0001211146 24962.0973243271
   -0.9983302412     1.5129997231    86.6884985354    86.8556251451     0.0029169096     0.0001211146 24962.3312033871
   -0.9981447124     1.5098724146    86.5093169626    86.6854485521     0.0030740762     0.0001211146 24962.5650486729
   -0.9979591837     1.5068978001    86.3388841007    86.5235754201     0.0032234716     0.0001211146 24962.7988601823
   -0.9959183673     1.4804147767    84.8215186329    85.0821351848     0.0045486169     0.0001211146 24965.3685564607
   -0.9938775510     1.4600831244    83.6566007642    83.9750834670     0.0055585718     0.0001211146 24967.9341592374
   -0.9918367347     1.4429339318    82.6740244067    83.0409611058     0.0064042535     0.0001211146 24970.4956631552
   -0.9897959184     1.4278174270    81.8079124837    82.2172483357     0.0071442584     0.0001211146 24973.0530607421
   -0.9877551020     1.4141440401    81.0244851196    81.4718910369     0.0078087064     0.0001211146 24975.6063444083
   -0.9857142857     1.4015635991    80.3036789465    80.7858533088     0.0084155302     0.0001211146 24978.1555083478
   -0.9836734694     1.3898479862    79.6324237728    80.1467358895     0.0089764398     0.0001211146 24980.7005471444
   -0.9816326531     1.3788387766    79.0016425268    79.5459287578     0.0094995868     0.0001211146 24983.2414553067
   -0.9795918367     1.3684206412    78.4047273409    78.9771648437     0.0099909192     0.0001211146 24985.7782271116
   -0.9775510204     1.3585065303    77.8366906282    78.4357143926     0.0104549370     0.0001211146 24988.3108565606
   -0.9755102041     1.3490288258    77.2936581616    77.9179039207     0.0108951438     0.0001211146 24990.8393373793
   -0.9734693878     1.3399337634    76.7725494708    77.4208129418     0.0113143320     0.0001211146 24993.3636630332
   -0.9714285714     1.3311777582    76.2708673246    76.9420742180     0.0117147703     0.0001211146 24995.8838267490
   -0.9693877551     1.3227248956    75.7865539757    76.4797373643     0.0120983325     0.0001211146 24998.3998228510
   -0.9673469388     1.3145451659    75.3178899826    76.0321728567     0.0124665879     0.0001211146 25000.9116463001
   -0.9653061224     1.3066131882    74.8634211408    75.5980027119     0.0128208670     0.0001211146 25003.4192898071
   -0.9632653061     1.2989072697    74.4219045316    75.1760493068     0.0131623094     0.0001211146 25005.9227466016
   -0.9612244898     1.2914086960    73.9922679079    74.7652968520     0.0134919003     0.0001211146 25008.4220103088
   -0.9591836735     1.2841011890    73.5735785965    74.3648618951     0.0138104989     0.0001211146 25010.9170748162
   -0.9571428571     1.2769704845    73.1650193268    73.9739703938     0.0141188596     0.0001211146 25013.4079341759
   -0.9551020408     1.2700040004    72.7658691871    73.5919396545     0.0144176495     0.0001211146 25015.8945825336
   -0.9530612245     1.2631905710    72.3754884407    73.2181639319     0.0147074618     0.0001211146 25018.3770140768
   -0.9510204082     1.2565202341    71.9933062850    72.8521028204     0.0149888271     0.0001211146 25020.8552229960
   -0.9489795918     1.2499840563    71.6188108859    72.4932718047     0.0152622222     0.0001211146 25023.3292034567
   -0.9469387755     1.2435739909    71.2515411916    72.1412344962     0.0155280775     0.0001211146 25025.7989495780
   -0.9448979592     1.2372827589    70.8910801509    71.7955962037     0.0157867833     0.0001211146 25028.2644554177
   -0.9428571429     1.2311037506    70.5370490537    71.4559985668     0.0160386947     0.0001211146 25030.7257149607
   -0.9408163265     1.2250309424    70.1891027733    71.1221150459     0.0162841361     0.0001211146 25033.1827221114
   -0.9387755102     1.2190588266    69.8469257429    70.7936471069     0.0165234049     0.0001211146 25035.6354706876
   -0.9367346939     1.2131823517    69.5102285299    70.4703209749     0.0167567743     0.0001211146 25038.0839544170
   -0.9346938776     1.2073968710    69.1787449051    70.1518848551     0.0169844962     0.0001211146 25040.5281669347
   -0.9326530612     1.2016980990    68.8522293213    69.8381065428     0.0172068035     0.0001211146 25042.9681017818
   -0.9306122449     1.1960820730    68.5304547326    69.5287713573     0.0174239121     0.0001211146 25045.4037526870
   -0.9285714286     1.1905451201    68.2132107017    69.2236803474     0.0176360223     0.0001211146 25047.8351142696
   -0.9265306122     1.1850838286    67.9003017483    68.9226487264     0.0178433209     0.0001211146 25050.2621805364
   -0.9244897959     1.1796950225    67.5915459031    68.6255045016     0.0180459819     0.0001211146 25052.6849454607
   -0.9224489796     1.1743757395    67.2867734365    68.3320872698     0.0182441681     0.0001211146 25055.1034030424
   -0.9204081633     1.1691232113    66.9858257369    68.0422471542     0.0184380320     0.0001211146 25057.5175472928
   -0.9183673469     1.1639348463    66.6885543185    67.7558438644     0.0186277166     0.0001211146 25059.9273722215
   -0.9163265306     1.1588082142    66.3948199388    67.4727458604     0.0188133564     0.0001211146 25062.3328718257
   -0.9142857143     1.1537410325    66.1044918138    67.1928296086     0.0189950779     0.0001211146 25064.7340391899
   -0.9122448980     1.1487311539    65.8174469161    66.9159359611     0.0191722506     0.0001211116 25067.1308224265
   -0.9102040816     1.1437765557    65.5335693460    66.6419826901     0.0193454623     0.0001211076 25069.5231553714
   -0.9081632653     1.1388753294    65.2527497676    66.3708818556     0.0195150864     0.0001211036 25071.9110129260
   -0.9061224490     1.1340256726    64.9748848997    66.1025452865     0.0196813866     0.0001211003 25074.2944025651
   -0.9040816327     1.1292258803    64.6998770572    65.8369783177     0.0198461609     0.0001211042 25076.6734359457
   -0.9020408163     1.1244743380    64.4276337361    65.5739876536     0.0200076503     0.0001211080 25079.0482309059
   -0.9000000000     1.1197695150    64.1580672368    65.3134905123     0.0201659404     0.0001211119 25081.4187797071
   -0.8979591837     1.1151099586    63.8910943224    65.0553864604     0.0203207313     0.0001211142 25083.7850418462
   -0.8959183673     1.1104942885    63.6266359071    64.7995675086     0.0204715183     0.0001211130 25086.1469144926
   -0.8938775510     1.1059211919    63.3646167727    64.5460174365     0.0206193314     0.0001211117 25088.5043824641
   -0.8918367347     1.1013894190    63.1049653087    64.2946687080     0.0207642414     0.0001211105 25090.8574443974
   -0.8897959184     1.0968977787    62.8476132749    64.0453975561     0.0209052794     0.0001211055 25093.2060010438
   -0.8877551020     1.0924451350    62.5924955840    63.7981138295     0.0210420079     0.0001210950 25095.5498823488
   -0.8857142857     1.0880304035    62.3395501007    63.5528406825     0.0211759154     0.0001210843 25097.8890174556
   -0.8836734694     1.0836525480    62.0887174586    63.3095278708     0.0213071612     0.0001210737 25100.2234037850
   -0.8816326531     1.0793105778    61.8399408902    63.0680697926     0.0214348930     0.0001210599 25102.5530151819
   -0.8795918367     1.0750035447    61.5931660703    62.8283520740     0.0215580626     0.0001210391 25104.8776403720
   -0.8775510204     1.0707305406    61.3483409720    62.5904366477     0.0216786592     0.0001210183 25107.1971985071
   -0.8755102041     1.0664906953    61.1054157324    62.3542803131     0.0217967988     0.0001209976 25109.5116771417
   -0.8734693878     1.0622831742    60.8643425293    62.1198052214     0.0219119576     0.0001209751 25111.8210897553
   -0.8714285714     1.0581071761    60.6250754655    61.8868423212     0.0220219860     0.0001209433 25114.1252271931
   -0.8693877551     1.0539619319    60.3875704629    61.6554923614     0.0221294118     0.0001209107 25116.4238994307
   -0.8673469388     1.0498467020    60.1517851626    61.4257314333     0.0222345569     0.0001208784 25118.7171230440
   -0.8653061224     1.0457607758    59.9176788330    61.1975094539     0.0223372582     0.0001208455 25121.0049028202
   -0.8632653061     1.0417034691    59.6852122830    60.9706569204     0.0224352413     0.0001208044 25123.2870744269
   -0.8612244898     1.0376741234    59.4543477825    60.7452144191     0.0225298730     0.0001207596 25125.5634964428
   -0.8591836735     1.0336721045    59.2250489867    60.5212158277     0.0226223790     0.0001207150 25127.8340943165
   -0.8571428571     1.0296968008    58.9972808661    60.2986283026     0.0227127975     0.0001206708 25130.0988792200
   -0.8551020408     1.0257476230    58.7710096411    60.0773252990     0.0227995093     0.0001206213 25132.3578262996
   -0.8530612245     1.0218240020    58.5462027200    59.8572028124     0.0228812681     0.0001205625 25134.6106306850
   -0.8510204082     1.0179253889    58.3228286418    59.6383842816     0.0229607774     0.0001205032 25136.8571712111
   -0.8489795918     1.0140512533    58.1008570218    59.4208562272     0.0230383323     0.0001204442 25139.0974757467
   -0.8469387755     1.0102010827    57.8802585008    59.2045723530     0.0231136371     0.0001203845 25141.3315058096
   -0.8448979592     1.0063743820    57.6610046973    58.9893704451     0.0231843560     0.0001203163 25143.5591102214
   -0.8428571429     1.0025706719    57.4430681625    58.7752773266     0.0232514362     0.0001202428 25145.7801529506
   -0.8408163265     0.9987894889    57.2264223382    58.5623699846     0.0233166851     0.0001201698 25147.9945261621
   -0.8387755102     0.9950303845    57.0110415164    58.3506244578     0.0233801329     0.0001200971 25150.2022563569
   -0.8367346939     0.9912929239    56.7969008020    58.1399624214     0.0234408473     0.0001200217 25152.4033357268
   -0.8346938776     0.9875766864    56.5839760772    57.9302585627     0.0234970620     0.0001199380 25154.5975750586
   -0.8326530612     0.9838812640    56.3722439680    57.7215896753     0.0235505253     0.0001198513 25156.7847825957
   -0.8306122449     0.9802062611    56.1616818123    57.5139939630     0.0236022995     0.0001197652 25158.9649607070
   -0.8285714286     0.9765512941    55.9522676300    57.3074509578     0.0236524110     0.0001196794 25161.1381469816
   -0.8265306122     0.9729159908    55.7439800947    57.1018743253     0.0236997252     0.0001195905 25163.3043453400
   -0.8244897959     0.9692999900    55.5367985066    56.8971147871     0.0237419980     0.0001194912 25165.4632685160
   -0.8224489796     0.9657029407    55.3307027670    56.6933263236     0.0237822675     0.0001193910 25167.6147632796
   -0.8204081633     0.9621245024    55.1256733545    56.4905148373     0.0238209776     0.0001192913 25169.7588552410
   -0.8183673469     0.9585643440    54.9216913014    56.2886627712     0.0238581529     0.0001191922 25171.8955924761
   -0.8163265306     0.9550221437    54.7187381727    56.0877056232     0.0238929894     0.0001190909 25174.0248990025
   -0.8142857143     0.9514975886    54.5167960447    55.8874735809     0.0239228360     0.0001189791 25176.1466666778
   -0.8122448980     0.9479903746    54.3158474857    55.6881513178     0.0239512202     0.0001188679 25178.2607722382
   -0.8102040816     0.9445002057    54.1158755372    55.4897231752     0.0239781647     0.0001187572 25180.3672035932
   -0.8081632653     0.9410267938    53.9168636960    55.2921739231     0.0240036917     0.0001186470 25182.4659925793
   -0.8061224490     0.9375698586    53.7187958976    55.0954280757     0.0240267641     0.0001185339 25184.5571382703
   -0.8040816327     0.9341291270    53.5216564995    54.8994192711     0.0240464967     0.0001184154 25186.6405006858
   -0.8020408163     0.9307043332    53.3254302661    54.7042098889     0.0240642441     0.0001182953 25188.7159882020
   -0.8000000000     0.9272952180    53.1301023542    54.5098226584     0.0240806621     0.0001181758 25190.7836034601
   -0.7979591837     0.9239015290    52.9356582985    54.3162442723     0.0240957708     0.0001180568 25192.8434071770
   -0.7959183673     0.9205230201    52.7420839987    54.1234617550     0.0241095901     0.0001179383 25194.8953945083
   -0.7938775510     0.9171594514    52.5493657065    53.9312556198     0.0241185289     0.0001178092 25196.9394179969
   -0.7918367347     0.9138105888    52.3574900132    53.7398037331     0.0241259257     0.0001176797 25198.9753627281
   -0.7897959184     0.9104762040    52.1664438387    53.5491111009     0.0241320962     0.0001175508 25201.0032406966
   -0.7877551020     0.9071560743    51.9762144194    53.3591660152     0.0241370587     0.0001174223 25203.0230763243
   -0.7857142857     0.9038499823    51.7867892983    53.1699454171     0.0241406283     0.0001172938 25205.0349083038
   -0.7836734694     0.9005577156    51.5981563144    52.9813891711     0.0241419677     0.0001171625 25207.0386854140
   -0.7816326531     0.8972790671    51.4103035930    52.7934839181     0.0241410508     0.0001170283 25209.0343423275
   -0.7795918367     0.8940138344    51.2232195364    52.6062824173     0.0241390010     0.0001168947 25211.0218620384
   -0.7775510204     0.8907618196    51.0368928148    52.4197743021     0.0241358351     0.0001167615 25213.0012747448
   -0.7755102041     0.8875228296    50.8513123577    52.2339494479     0.0241315696     0.0001166289 25214.9726342659
   -0.7734693878     0.8842966755    50.6664673458    52.0487572914     0.0241255108     0.0001164946 25216.9359002868
   -0.7714285714     0.8810831728    50.4823472028    51.8641700384     0.0241173582     0.0001163576 25218.8910319760
   -0.7693877551     0.8778821410    50.2989415880    51.6802202267     0.0241078601     0.0001162202 25220.8380164300
   -0.7673469388     0.8746934035    50.1162403889    51.4969157206     0.0240973304     0.0001160834 25222.7768696244
   -0.7653061224     0.8715167878    49.9342337142    51.3142474945     0.0240857842     0.0001159470 25224.7076355673
   -0.7632653061     0.8683521249    49.7529118872    51.1322028668     0.0240731689     0.0001158108 25226.6303036374
   -0.7612244898     0.8651992496    49.5722654391    50.9507294149     0.0240587350     0.0001156726 25228.5448595711
   -0.7591836735     0.8620580001    49.3922851027    50.7698361342     0.0240428011     0.0001155333 25230.4513007456
   -0.7571428571     0.8589282182    49.2129618067    50.5895451865     0.0240259124     0.0001153945 25232.3496357496
   -0.7551020408     0.8558097488    49.0342866700    50.4098484822     0.0240080827     0.0001152561 25234.2398839738
   -0.7530612245     0.8527024401    48.8562509955    50.2307381028     0.0239893255     0.0001151181 25236.1220749121
   -0.7510204082     0.8496061434    48.6788462656    50.0521974670     0.0239695002     0.0001149802 25237.9962300169
   -0.7489795918     0.8465207132    48.5020641364    49.8742119528     0.0239484972     0.0001148418 25239.8623563649
   -0.7469387755     0.8434460067    48.3258964330    49.6967826357     0.0239264779     0.0001147035 25241.7204657113
   -0.7448979592     0.8403818842    48.1503351447    49.5199096778     0.0239035850     0.0001145656 25243.5705753605
   -0.7428571429     0.8373282086    47.9753724206    49.3435859416     0.0238798308     0.0001144282 25245.4127079712
   -0.7408163265     0.8342848456    47.8010005647    49.1678044324     0.0238552277     0.0001142912 25247.2468913705
   -0.7387755102     0.8312516635    47.6272120320    48.9925582952     0.0238297877     0.0001141546 25249.0731572451
   -0.7367346939     0.8282285332    47.4539994242    48.8178408088     0.0238035226     0.0001140184 25250.8915296259
   -0.7346938776     0.8252153280    47.2813554856    48.6436453834     0.0237764441     0.0001138827 25252.7020289504
   -0.7326530612     0.8222119238    47.1092730996    48.4699655568     0.0237485635     0.0001137473 25254.5046791021
   -0.7306122449     0.8192181987    46.9377452847    48.2967949920     0.0237198921     0.0001136123 25256.2995073882
   -0.7285714286     0.8162340331    46.7667651908    48.1241293392     0.0236904735     0.0001134779 25258.0865444247
   -0.7265306122     0.8132593097    46.5963260961    47.9519713070     0.0236604724     0.0001133444 25259.8658240265
   -0.7244897959     0.8102939134    46.4264214035    47.7803225534     0.0236300328     0.0001132122 25261.6373830949
   -0.7224489796     0.8073377312    46.2570446372    47.6091587707     0.0235988435     0.0001130804 25263.4012567247
   -0.7204081633     0.8043906520    46.0881894401    47.4384741585     0.0235669142     0.0001129490 25265.1574701245
   -0.7183673469     0.8014525670    45.9198495701    47.2682630774     0.0235342554     0.0001128180 25266.9060495541
   -0.7163265306     0.7985233692    45.7520188977    47.0985199838     0.0235008773     0.0001126873 25268.6470244009
   -0.7142857143     0.7956029535    45.5846914028    46.9292665421     0.0234672632     0.0001125584 25270.3804270817
   -0.7122448980     0.7926912167    45.4178611722    46.7604852957     0.0234332116     0.0001124307 25272.1062929476
   -0.7102040816     0.7897880574    45.2515223968    46.5921589730     0.0233985223     0.0001123035 25273.8246601929
   -0.7081632653     0.7868933760    45.0856693690    46.4242792051     0.0233631490     0.0001121766 25275.5355618344
   -0.7061224490     0.7840070746    44.9202964804    46.2568409095     0.0233271009     0.0001120501 25277.2390023493
   -0.7040816327     0.7811290570    44.7553982192    46.0898451901     0.0232904933     0.0001119242 25278.9350379410
   -0.7020408163     0.7782592286    44.5909691678    45.9233124213     0.0232537765     0.0001118003 25280.6237252827
   -0.7000000000     0.7753974966    44.4270040008    45.7572577725     0.0232173082     0.0001116795 25282.3051121434
   -0.6979591837     0.7725437695    44.2634974825    45.5916247616     0.0231801939     0.0001115590 25283.9792376327
   -0.6959183673     0.7696979575    44.1004444649    45.4264087248     0.0231424421     0.0001114388 25285.6461324367
   -0.6938775510     0.7668599722    43.9378398857    45.2616050121     0.0231040600     0.0001113190 25287.3058190193
   -0.6918367347     0.7640297268    43.7756787663    45.0972091816     0.0230650569     0.0001111994 25288.9583128546
