shape model output for Uranus's 1-bar isobaric surface. models are described in Mankovich et al. 2026, PSJ.
this model assumes the composite asymmetric wind profile described in Sromovsky et al. (2015, Icarus 258) Section 4.5 and Table 6.
these solutions vary the (north) polar radius to fit the pair of Voyager 2 occultations reported in Lindal et al. 1987 to a Gaussian standard deviation of 5 km.
mu=sin(phi), phi [radians], and lat_deg [degrees] refer to planetocentric latitude; lat_pg_deg gives planetographic latitude in degrees.
              mu          phi_rad          lat_deg       lat_pg_deg          psi_rad    omega_rad_s-1             r_km 
   -1.0000000000     1.5707963268    90.0000000000    90.0000000000     0.0000000000     0.0001211146 24971.7735073519
   -0.9998144712     1.5515331758    88.8963027451    88.9521508289     0.0009747329     0.0001211146 24972.0079741664
   -0.9996289425     1.5435536961    88.4391122386    88.5180775496     0.0013782047     0.0001211146 24972.2424072475
   -0.9994434137     1.5374305386    88.0882811581    88.1849741584     0.0016876112     0.0001211146 24972.4768065156
   -0.9992578850     1.5322682374    87.7925030866    87.9041321916     0.0019482954     0.0001211146 24972.7111719704
   -0.9990723562     1.5277199472    87.5319052508    87.6566853908     0.0021778243     0.0001211146 24972.9455036162
   -0.9988868275     1.5236077873    87.2962958471    87.4329582625     0.0023852091     0.0001211146 24973.1798014558
   -0.9987012987     1.5198260904    87.0796205724    87.2272032783     0.0025758041     0.0001211146 24973.4140654907
   -0.9985157699     1.5163060092    86.8779347757    87.0356757086     0.0027530986     0.0001211146 24973.6482957209
   -0.9983302412     1.5129997231    86.6884985354    86.8557745260     0.0029195168     0.0001211146 24973.8824921455
   -0.9981447124     1.5098724146    86.5093169626    86.6856059898     0.0030768240     0.0001211146 24974.1166547627
   -0.9979591837     1.5068978001    86.3388841007    86.5237405173     0.0032263531     0.0001211146 24974.3507835702
   -0.9959183673     1.4804147767    84.8215186329    85.0823682808     0.0045526852     0.0001211146 24976.9239679300
   -0.9938775510     1.4600831244    83.6566007642    83.9753684757     0.0055635461     0.0001211146 24979.4930547485
   -0.9918367347     1.4429339318    82.6740244067    83.0412896567     0.0064099878     0.0001211146 24982.0580386520
   -0.9897959184     1.4278174270    81.8079124837    82.2176150519     0.0071506588     0.0001211146 24984.6189121571
   -0.9877551020     1.4141440401    81.0244851196    81.4722920796     0.0078157059     0.0001211146 24987.1756676625
   -0.9857142857     1.4015635991    80.3036789465    80.7862857543     0.0084230778     0.0001211146 24989.7282993478
   -0.9836734694     1.3898479862    79.6324237728    80.1471974112     0.0089844949     0.0001211146 24992.2768017810
   -0.9816326531     1.3788387766    79.0016425268    79.5464174444     0.0095081160     0.0001211146 24994.8211694553
   -0.9795918367     1.3684206412    78.4047273409    78.9776790870     0.0099998944     0.0001211146 24997.3613966322
   -0.9775510204     1.3585065303    77.8366906282    78.4362528135     0.0104643342     0.0001211146 24999.8974772981
   -0.9755102041     1.3490288258    77.2936581616    77.9184653181     0.0109049421     0.0001211146 25002.4294051639
   -0.9734693878     1.3399337634    76.7725494708    77.4213962568     0.0113245128     0.0001211146 25004.9571736809
   -0.9714285714     1.3311777582    76.2708673246    76.9426785066     0.0117253171     0.0001211146 25007.4807760619
   -0.9693877551     1.3227248956    75.7865539757    76.4803617778     0.0121092305     0.0001211146 25010.0002066239
   -0.9673469388     1.3145451659    75.3178899826    76.0328166260     0.0124778238     0.0001211146 25012.5154603032
   -0.9653061224     1.3066131882    74.8634211408    75.5986651353     0.0128324285     0.0001211146 25015.0265297975
   -0.9632653061     1.2989072697    74.4219045316    75.1767297402     0.0131741852     0.0001211146 25017.5334083241
   -0.9612244898     1.2914086960    73.9922679079    74.7659947014     0.0135040801     0.0001211146 25020.0360894954
   -0.9591836735     1.2841011890    73.5735785965    74.3655766098     0.0138229730     0.0001211146 25022.5345671851
   -0.9571428571     1.2769704845    73.1650193268    73.9747014612     0.0141316191     0.0001211146 25025.0288354311
   -0.9551020408     1.2700040004    72.7658691871    73.5926865958     0.0144306861     0.0001211146 25027.5188883648
   -0.9530612245     1.2631905710    72.3754884407    73.2189262980     0.0147207676     0.0001211146 25030.0047201589
   -0.9510204082     1.2565202341    71.9933062850    72.8528801892     0.0150023948     0.0001211146 25032.4863249892
   -0.9489795918     1.2499840563    71.6188108859    72.4940637780     0.0152760448     0.0001211146 25034.9636970060
   -0.9469387755     1.2435739909    71.2515411916    72.1420406975     0.0155421484     0.0001211146 25037.4368303137
   -0.9448979592     1.2372827589    70.8910801509    71.7964162760     0.0158010962     0.0001211146 25039.9057189547
   -0.9428571429     1.2311037506    70.5370490537    71.4568321711     0.0160532438     0.0001211146 25042.3703568992
   -0.9408163265     1.2250309424    70.1891027733    71.1229618594     0.0162989158     0.0001211146 25044.8307380361
   -0.9387755102     1.2190588266    69.8469257429    70.7945068219     0.0165384098     0.0001211146 25047.2868561685
   -0.9367346939     1.2131823517    69.5102285299    70.4711932971     0.0167719992     0.0001211146 25049.7387050089
   -0.9346938776     1.2073968710    69.1787449051    70.1527695028     0.0169999362     0.0001211146 25052.1862781774
   -0.9326530612     1.2016980990    68.8522293213    69.8390032462     0.0172224540     0.0001211146 25054.6295692003
   -0.9306122449     1.1960820730    68.5304547326    69.5296798567     0.0174397684     0.0001211146 25057.0685633543
   -0.9285714286     1.1905451201    68.2132107017    69.2246003920     0.0176520801     0.0001211146 25059.5032432668
   -0.9265306122     1.1850838286    67.9003017483    68.9235800768     0.0178595760     0.0001211146 25061.9336295615
   -0.9244897959     1.1796950225    67.5915459031    68.6264469285     0.0180624303     0.0001211146 25064.3597334040
   -0.9224489796     1.1743757395    67.2867734365    68.3330405526     0.0182608060     0.0001211146 25066.7815547296
   -0.9204081633     1.1691232113    66.9858257369    68.0432110796     0.0184548557     0.0001211146 25069.1990836057
   -0.9183673469     1.1639348463    66.6885543185    67.7568182253     0.0186447225     0.0001211146 25071.6123014146
   -0.9163265306     1.1588082142    66.3948199388    67.4737304545     0.0188305408     0.0001211146 25074.0211818860
   -0.9142857143     1.1537410325    66.1044918138    67.1938242379     0.0190124374     0.0001211146 25076.4256919975
   -0.9122448980     1.1487311539    65.8174469161    66.9169403738     0.0191897809     0.0001211116 25078.8257927641
   -0.9102040816     1.1437765557    65.5335693460    66.6429966801     0.0193631598     0.0001211076 25081.2214399313
   -0.9081632653     1.1388753294    65.2527497676    66.3719052399     0.0195329478     0.0001211036 25083.6125650360
   -0.9061224490     1.1340256726    64.9748848997    66.1035779029     0.0196994091     0.0001211003 25085.9992072102
   -0.9040816327     1.1292258803    64.6998770572    65.8380201500     0.0198643443     0.0001211042 25088.3815162645
   -0.9020408163     1.1244743380    64.4276337361    65.5750385370     0.0200259916     0.0001211080 25090.7595729635
   -0.9000000000     1.1197695150    64.1580672368    65.3145502886     0.0201844370     0.0001211119 25093.1333918990
   -0.8979591837     1.1151099586    63.8910943224    65.0564549438     0.0203393798     0.0001211142 25095.5029277534
   -0.8959183673     1.1104942885    63.6266359071    64.8006444700     0.0204903149     0.0001211130 25097.8680787272
   -0.8938775510     1.1059211919    63.3646167727    64.5471027251     0.0206382732     0.0001211117 25100.2287996646
   -0.8918367347     1.1013894190    63.1049653087    64.2957621795     0.0207833261     0.0001211105 25102.5851224066
   -0.8897959184     1.0968977787    62.8476132749    64.0464989855     0.0209245030     0.0001211055 25104.9369484008
   -0.8877551020     1.0924451350    62.5924955840    63.7992229518     0.0210613657     0.0001210950 25107.2840842336
   -0.8857142857     1.0880304035    62.3395501007    63.5539573526     0.0211954050     0.0001210843 25109.6264694878
   -0.8836734694     1.0836525480    62.0887174586    63.3106519539     0.0213267802     0.0001210737 25111.9640956616
   -0.8816326531     1.0793105778    61.8399408902    63.0692010828     0.0214546377     0.0001210599 25114.2969370367
   -0.8795918367     1.0750035447    61.5931660703    62.8294902794     0.0215779281     0.0001210391 25116.6247949960
   -0.8775510204     1.0707305406    61.3483409720    62.5915816350     0.0216986430     0.0001210183 25118.9475748774
   -0.8755102041     1.0664906953    61.1054157324    62.3554319578     0.0218168988     0.0001209976 25121.2652733206
   -0.8734693878     1.0622831742    60.8643425293    62.1209633507     0.0219321708     0.0001209751 25123.5778644595
   -0.8714285714     1.0581071761    60.6250754655    61.8880065895     0.0220423063     0.0001209433 25125.8851786115
   -0.8693877551     1.0539619319    60.3875704629    61.6566626317     0.0221498369     0.0001209107 25128.1870696690
   -0.8673469388     1.0498467020    60.1517851626    61.4269075865     0.0222550847     0.0001208784 25130.4834831802
   -0.8653061224     1.0457607758    59.9176788330    61.1986913572     0.0223578863     0.0001208455 25132.7744369718
   -0.8632653061     1.0417034691    59.6852122830    60.9718442580     0.0224559642     0.0001208044 25135.0598049804
   -0.8612244898     1.0376741234    59.4543477825    60.7464069823     0.0225506872     0.0001207596 25137.3394174349
   -0.8591836735     1.0336721045    59.2250489867    60.5224135062     0.0226432825     0.0001207150 25139.6131934475
   -0.8571428571     1.0296968008    58.9972808661    60.2998309859     0.0227337883     0.0001206708 25141.8811271277
   -0.8551020408     1.0257476230    58.7710096411    60.0785327428     0.0228205832     0.0001206213 25144.1431900942
   -0.8530612245     1.0218240020    58.5462027200    59.8584146753     0.0229024191     0.0001205625 25146.3991391844
   -0.8510204082     1.0179253889    58.3228286418    59.6396004399     0.0229820034     0.0001205032 25148.6488310851
   -0.8489795918     1.0140512533    58.1008570218    59.4220765742     0.0230596313     0.0001204442 25150.8922346850
   -0.8469387755     1.0102010827    57.8802585008    59.2057967684     0.0231350071     0.0001203845 25153.1294240053
   -0.8448979592     1.0063743820    57.6610046973    58.9905986152     0.0232057916     0.0001203163 25155.3602404555
   -0.8428571429     1.0025706719    57.4430681625    58.7765090006     0.0232729330     0.0001202428 25157.5844171407
   -0.8408163265     0.9987894889    57.2264223382    58.5636050616     0.0233382412     0.0001201698 25159.8018736817
   -0.8387755102     0.9950303845    57.0110415164    58.3518628450     0.0234017469     0.0001200971 25162.0126989070
   -0.8367346939     0.9912929239    56.7969008020    58.1412039445     0.0234625160     0.0001200217 25164.2168461883
   -0.8346938776     0.9875766864    56.5839760772    57.9315028996     0.0235187798     0.0001199380 25166.4141103854
   -0.8326530612     0.9838812640    56.3722439680    57.7228366537     0.0235722892     0.0001198513 25168.6043693449
   -0.8306122449     0.9802062611    56.1616818123    57.5152434932     0.0236241080     0.0001197652 25170.7875891652
   -0.8285714286     0.9765512941    55.9522676300    57.3087029494     0.0236742624     0.0001196794 25172.9637875911
   -0.8265306122     0.9729159908    55.7439800947    57.1031285924     0.0237216163     0.0001195905 25175.1329548490
   -0.8244897959     0.9692999900    55.5367985066    56.8983709638     0.0237639224     0.0001194912 25177.2948597109
   -0.8224489796     0.9657029407    55.3307027670    56.6945842936     0.0238042232     0.0001193910 25179.4493510878
   -0.8204081633     0.9621245024    55.1256733545    56.4917745178     0.0238429632     0.0001192913 25181.5964328318
   -0.8183673469     0.9585643440    54.9216913014    56.2899240797     0.0238801669     0.0001191922 25183.7361452202
   -0.8163265306     0.9550221437    54.7187381727    56.0889684173     0.0239150293     0.0001190909 25185.8684765728
   -0.8142857143     0.9514975886    54.5167960447    55.8887374879     0.0239448953     0.0001189791 25187.9932193942
   -0.8122448980     0.9479903746    54.3158474857    55.6894162564     0.0239732976     0.0001188679 25190.1102620354
   -0.8102040816     0.9445002057    54.1158755372    55.4909890693     0.0240002587     0.0001187572 25192.2196277536
   -0.8081632653     0.9410267938    53.9168636960    55.2934406973     0.0240258011     0.0001186470 25194.3213444690
   -0.8061224490     0.9375698586    53.7187958976    55.0966955673     0.0240488860     0.0001185339 25196.4154041565
   -0.8040816327     0.9341291270    53.5216564995    54.9006872454     0.0240686270     0.0001184154 25198.5016813459
   -0.8020408163     0.9307043332    53.3254302661    54.7054782228     0.0240863807     0.0001182953 25200.5800900721
   -0.8000000000     0.9272952180    53.1301023542    54.5110912792     0.0241028037     0.0001181758 25202.6506012813
   -0.7979591837     0.9239015290    52.9356582985    54.3175131046     0.0241179162     0.0001180568 25204.7132402620
   -0.7959183673     0.9205230201    52.7420839987    54.1247307287     0.0241317378     0.0001179383 25206.7680413167
   -0.7938775510     0.9171594514    52.5493657065    53.9325243700     0.0241406728     0.0001178092 25208.8148882238
   -0.7918367347     0.9138105888    52.3574900132    53.7410721731     0.0241480642     0.0001176797 25210.8536878665
   -0.7897959184     0.9104762040    52.1664438387    53.5503791642     0.0241542281     0.0001175508 25212.8844007828
   -0.7877551020     0.9071560743    51.9762144194    53.3604336347     0.0241591829     0.0001174223 25214.9070369383
   -0.7857142857     0.9038499823    51.7867892983    53.1712125110     0.0241627433     0.0001172938 25216.9216445870
   -0.7836734694     0.9005577156    51.5981563144    52.9826555896     0.0241640708     0.0001171625 25218.9281934184
   -0.7816326531     0.8972790671    51.4103035930    52.7947495097     0.0241631396     0.0001170283 25220.9266248772
   -0.7795918367     0.8940138344    51.2232195364    52.6075471225     0.0241610743     0.0001168947 25222.9169160536
   -0.7775510204     0.8907618196    51.0368928148    52.4210380599     0.0241578919     0.0001167615 25224.8990757578
   -0.7755102041     0.8875228296    50.8513123577    52.2352121969     0.0241536087     0.0001166289 25226.8731424747
   -0.7734693878     0.8842966755    50.6664673458    52.0500189172     0.0241475303     0.0001164946 25228.8391267473
   -0.7714285714     0.8810831728    50.4823472028    51.8654304008     0.0241393556     0.0001163576 25230.7969819356
   -0.7693877551     0.8778821410    50.2989415880    51.6814792457     0.0241298342     0.0001162202 25232.7466819657
   -0.7673469388     0.8746934035    50.1162403889    51.4981733401     0.0241192800     0.0001160834 25234.6882257805
   -0.7653061224     0.8715167878    49.9342337142    51.3155036571     0.0241077084     0.0001159470 25236.6216363862
   -0.7632653061     0.8683521249    49.7529118872    51.1334575155     0.0240950667     0.0001158108 25238.5469524328
   -0.7612244898     0.8651992496    49.5722654391    50.9519824299     0.0240806042     0.0001156726 25240.4641607386
   -0.7591836735     0.8620580001    49.3922851027    50.7710874209     0.0240646402     0.0001155333 25242.3732479571
   -0.7571428571     0.8589282182    49.2129618067    50.5907946945     0.0240477204     0.0001153945 25244.2742166482
   -0.7551020408     0.8558097488    49.0342866700    50.4110961615     0.0240298588     0.0001152561 25246.1670807115
   -0.7530612245     0.8527024401    48.8562509955    50.2319839034     0.0240110689     0.0001151181 25248.0518649745
   -0.7510204082     0.8496061434    48.6788462656    50.0534413282     0.0239912097     0.0001149802 25249.9286010524
   -0.7489795918     0.8465207132    48.5020641364    49.8754538041     0.0239701716     0.0001148418 25251.7972932979
   -0.7469387755     0.8434460067    48.3258964330    49.6980224198     0.0239481162     0.0001147035 25253.6579563375
   -0.7448979592     0.8403818842    48.1503351447    49.5211473496     0.0239251864     0.0001145656 25255.5106116360
   -0.7428571429     0.8373282086    47.9753724206    49.3448214566     0.0239013946     0.0001144282 25257.3552823229
   -0.7408163265     0.8342848456    47.8010005647    49.1690377467     0.0238767531     0.0001142912 25259.1919931311
   -0.7387755102     0.8312516635    47.6272120320    48.9937893649     0.0238512739     0.0001141546 25261.0207703364
   -0.7367346939     0.8282285332    47.4539994242    48.8190695909     0.0238249689     0.0001140184 25262.8416390275
   -0.7346938776     0.8252153280    47.2813554856    48.6448718355     0.0237978497     0.0001138827 25264.6546211143
   -0.7326530612     0.8222119238    47.1092730996    48.4711896382     0.0237699277     0.0001137473 25266.4597471204
   -0.7306122449     0.8192181987    46.9377452847    48.2980166626     0.0237412143     0.0001136123 25268.2570477091
   -0.7285714286     0.8162340331    46.7667651908    48.1253485626     0.0237117530     0.0001134779 25270.0465531049
   -0.7265306122     0.8132593097    46.5963260961    47.9531880598     0.0236817088     0.0001133444 25271.8282931024
   -0.7244897959     0.8102939134    46.4264214035    47.7815368230     0.0236512258     0.0001132122 25273.6022970742
   -0.7224489796     0.8073377312    46.2570446372    47.6103705178     0.0236199925     0.0001130804 25275.3685939791
   -0.7204081633     0.8043906520    46.0881894401    47.4396833447     0.0235880185     0.0001129490 25277.1272123697
   -0.7183673469     0.8014525670    45.9198495701    47.2694696650     0.0235553143     0.0001128180 25278.8781804002
   -0.7163265306     0.7985233692    45.7520188977    47.0997239357     0.0235218903     0.0001126873 25280.6215263120
   -0.7142857143     0.7956029535    45.5846914028    46.9304678620     0.0234882302     0.0001125584 25282.3572889859
   -0.7122448980     0.7926912167    45.4178611722    46.7616839711     0.0234541324     0.0001124307 25284.0855118242
   -0.7102040816     0.7897880574    45.2515223968    46.5933549743     0.0234193965     0.0001123035 25285.8062310048
   -0.7081632653     0.7868933760    45.0856693690    46.4254724978     0.0233839759     0.0001121766 25287.5194757015
   -0.7061224490     0.7840070746    44.9202964804    46.2580314617     0.0233478799     0.0001120501 25289.2252682825
   -0.7040816327     0.7811290570    44.7553982192    46.0910329757     0.0233112241     0.0001119242 25290.9236270782
   -0.7020408163     0.7782592286    44.5909691678    45.9244974509     0.0232744592     0.0001118003 25292.6146023619
   -0.7000000000     0.7753974966    44.4270040008    45.7584400886     0.0232379435     0.0001116795 25294.2982608174
   -0.6979591837     0.7725437695    44.2634974825    45.5928043326     0.0232007813     0.0001115590 25295.9746534865
   -0.6959183673     0.7696979575    44.1004444649    45.4275855198     0.0231629810     0.0001114388 25297.6438154809
   -0.6938775510     0.7668599722    43.9378398857    45.2627790005     0.0231245499     0.0001113190 25299.3057664169
   -0.6918367347     0.7640297268    43.7756787663    45.0983803328     0.0230854974     0.0001111994 25300.9605154944
