shape model output for Uranus's 1-bar isobaric surface. models are described in Mankovich et al. 2026, PSJ.
this model assumes the composite asymmetric wind profile described in Sromovsky et al. (2015, Icarus 258) Section 4.5 and Table 6.
these solutions vary the (north) polar radius to fit the pair of Voyager 2 occultations reported in Lindal et al. 1987 to a Gaussian standard deviation of 5 km.
mu=sin(phi), phi [radians], and lat_deg [degrees] refer to planetocentric latitude; lat_pg_deg gives planetographic latitude in degrees.
              mu          phi_rad          lat_deg       lat_pg_deg          psi_rad    omega_rad_s-1             r_km 
   -1.0000000000     1.5707963268    90.0000000000    90.0000000000     0.0000000000     0.0001211146 24970.0099417490
   -0.9998144712     1.5515331758    88.8963027451    88.9521432112     0.0009746000     0.0001211146 24970.2443600265
   -0.9996289425     1.5435536961    88.4391122386    88.5180667782     0.0013780167     0.0001211146 24970.4787445758
   -0.9994434137     1.5374305386    88.0882811581    88.1849609681     0.0016873810     0.0001211146 24970.7130953170
   -0.9992578850     1.5322682374    87.7925030866    87.9041169631     0.0019480296     0.0001211146 24970.9474122500
   -0.9990723562     1.5277199472    87.5319052508    87.6566683674     0.0021775272     0.0001211146 24971.1816953791
   -0.9988868275     1.5236077873    87.2962958471    87.4329396170     0.0023848837     0.0001211146 24971.4159447071
   -0.9987012987     1.5198260904    87.0796205724    87.2271831420     0.0025754527     0.0001211146 24971.6501602353
   -0.9985157699     1.5163060092    86.8779347757    87.0356541852     0.0027527230     0.0001211146 24971.8843419640
   -0.9983302412     1.5129997231    86.6884985354    86.8557517004     0.0029191184     0.0001211146 24972.1184898922
   -0.9981447124     1.5098724146    86.5093169626    86.6855819331     0.0030764041     0.0001211146 24972.3526040181
   -0.9979591837     1.5068978001    86.3388841007    86.5237152902     0.0032259128     0.0001211146 24972.5866843393
   -0.9959183673     1.4804147767    84.8215186329    85.0823326634     0.0045520636     0.0001211146 24975.1593356856
   -0.9938775510     1.4600831244    83.6566007642    83.9753249259     0.0055627860     0.0001211146 24977.7278901077
   -0.9918367347     1.4429339318    82.6740244067    83.0412394535     0.0064091116     0.0001211146 24980.2923422344
   -0.9897959184     1.4278174270    81.8079124837    82.2175590170     0.0071496808     0.0001211146 24982.8526845839
   -0.9877551020     1.4141440401    81.0244851196    81.4722307995     0.0078146363     0.0001211146 24985.4089095568
   -0.9857142857     1.4015635991    80.3036789465    80.7862196758     0.0084219245     0.0001211146 24987.9610113348
   -0.9836734694     1.3898479862    79.6324237728    80.1471268897     0.0089832641     0.0001211146 24990.5089844884
   -0.9816326531     1.3788387766    79.0016425268    79.5463427721     0.0095068127     0.0001211146 24993.0528235130
   -0.9795918367     1.3684206412    78.4047273409    78.9776005096     0.0099985230     0.0001211146 24995.5925226726
   -0.9775510204     1.3585065303    77.8366906282    78.4361705416     0.0104628983     0.0001211146 24998.1280759559
   -0.9755102041     1.3490288258    77.2936581616    77.9183795353     0.0109034449     0.0001211146 25000.6594770761
   -0.9734693878     1.3399337634    76.7725494708    77.4213071249     0.0113229571     0.0001211146 25003.1867194865
   -0.9714285714     1.3311777582    76.2708673246    76.9425861698     0.0117237055     0.0001211146 25005.7097964021
   -0.9693877551     1.3227248956    75.7865539757    76.4802663659     0.0121075653     0.0001211146 25008.2287021410
   -0.9673469388     1.3145451659    75.3178899826    76.0327182564     0.0124761070     0.0001211146 25010.7434316434
   -0.9653061224     1.3066131882    74.8634211408    75.5985639153     0.0128306619     0.0001211146 25013.2539776089
   -0.9632653061     1.2989072697    74.4219045316    75.1766257681     0.0131723705     0.0001211146 25015.7603332566
   -0.9612244898     1.2914086960    73.9922679079    74.7658880681     0.0135022190     0.0001211146 25018.2624922009
   -0.9591836735     1.2841011890    73.5735785965    74.3654673994     0.0138210669     0.0001211146 25020.7604483177
   -0.9571428571     1.2769704845    73.1650193268    73.9745897520     0.0141296694     0.0001211146 25023.2541956470
   -0.9551020408     1.2700040004    72.7658691871    73.5925724609     0.0144286941     0.0001211146 25025.7437283225
   -0.9530612245     1.2631905710    72.3754884407    73.2188098061     0.0147187345     0.0001211146 25028.2290405189
   -0.9510204082     1.2565202341    71.9933062850    72.8527614048     0.0150003216     0.0001211146 25030.7101264145
   -0.9489795918     1.2499840563    71.6188108859    72.4939427619     0.0152739326     0.0001211146 25033.1869801619
   -0.9469387755     1.2435739909    71.2515411916    72.1419175073     0.0155399983     0.0001211146 25035.6595958675
   -0.9448979592     1.2372827589    70.8910801509    71.7962909662     0.0157989092     0.0001211146 25038.1279675764
   -0.9428571429     1.2311037506    70.5370490537    71.4567047935     0.0160510206     0.0001211146 25040.5920892607
   -0.9408163265     1.2250309424    70.1891027733    71.1228324634     0.0162966574     0.0001211146 25043.0519548121
   -0.9387755102     1.2190588266    69.8469257429    70.7943754544     0.0165361170     0.0001211146 25045.5075580355
   -0.9367346939     1.2131823517    69.5102285299    70.4710600031     0.0167696728     0.0001211146 25047.9588926460
   -0.9346938776     1.2073968710    69.1787449051    70.1526343254     0.0169975769     0.0001211146 25050.4059522659
   -0.9326530612     1.2016980990    68.8522293213    69.8388662266     0.0172200625     0.0001211146 25052.8487304238
   -0.9306122449     1.1960820730    68.5304547326    69.5295410344     0.0174373455     0.0001211146 25055.2872123107
   -0.9285714286     1.1905451201    68.2132107017    69.2244598051     0.0176496264     0.0001211146 25057.7213802969
   -0.9265306122     1.1850838286    67.9003017483    68.9234377620     0.0178570921     0.0001211146 25060.1512553165
   -0.9244897959     1.1796950225    67.5915459031    68.6263029211     0.0180599169     0.0001211146 25062.5768487946
   -0.9224489796     1.1743757395    67.2867734365    68.3328948866     0.0182582637     0.0001211146 25064.9981608188
   -0.9204081633     1.1691232113    66.9858257369    68.0430637881     0.0184522850     0.0001211146 25067.4151815142
   -0.9183673469     1.1639348463    66.6885543185    67.7566693400     0.0186421239     0.0001211146 25069.8278922380
   -0.9163265306     1.1588082142    66.3948199388    67.4735800064     0.0188279150     0.0001211146 25072.2362666213
   -0.9142857143     1.1537410325    66.1044918138    67.1936722568     0.0190097849     0.0001211146 25074.6402714785
   -0.9122448980     1.1487311539    65.8174469161    66.9167868979     0.0191871023     0.0001211116 25077.0398676040
   -0.9102040816     1.1437765557    65.5335693460    66.6428417409     0.0193604556     0.0001211076 25079.4350104722
   -0.9081632653     1.1388753294    65.2527497676    66.3717488654     0.0195302186     0.0001211036 25081.8256389990
   -0.9061224490     1.1340256726    64.9748848997    66.1034201188     0.0196966553     0.0001211003 25084.2117971802
   -0.9040816327     1.1292258803    64.6998770572    65.8378609591     0.0198615659     0.0001211042 25086.5936222251
   -0.9020408163     1.1244743380    64.4276337361    65.5748779638     0.0200231891     0.0001211080 25088.9711888315
   -0.9000000000     1.1197695150    64.1580672368    65.3143883568     0.0201816108     0.0001211119 25091.3445118440
   -0.8979591837     1.1151099586    63.8910943224    65.0562916802     0.0203365303     0.0001211142 25093.7135324678
   -0.8959183673     1.1104942885    63.6266359071    64.8004799093     0.0204874427     0.0001211130 25096.0781656843
   -0.8938775510     1.1059211919    63.3646167727    64.5469368948     0.0206353789     0.0001211117 25098.4384202660
   -0.8918367347     1.1013894190    63.1049653087    64.2955950995     0.0207804100     0.0001211105 25100.7942532087
   -0.8897959184     1.0968977787    62.8476132749    64.0463306881     0.0209215657     0.0001211055 25103.1455649634
   -0.8877551020     1.0924451350    62.5924955840    63.7990534790     0.0210584079     0.0001210950 25105.4922042602
   -0.8857142857     1.0880304035    62.3395501007    63.5537867250     0.0211924270     0.0001210843 25107.8340780197
   -0.8836734694     1.0836525480    62.0887174586    63.3104801976     0.0213237825     0.0001210737 25110.1712516052
   -0.8816326531     1.0793105778    61.8399408902    63.0690282288     0.0214516209     0.0001210599 25112.5036366386
   -0.8795918367     1.0750035447    61.5931660703    62.8293163687     0.0215748928     0.0001210391 25114.8310010474
   -0.8775510204     1.0707305406    61.3483409720    62.5914066881     0.0216955896     0.0001210183 25117.1532894007
   -0.8755102041     1.0664906953    61.1054157324    62.3552559948     0.0218138277     0.0001209976 25119.4705086764
   -0.8734693878     1.0622831742    60.8643425293    62.1207863971     0.0219290824     0.0001209751 25121.7826169224
   -0.8714285714     1.0581071761    60.6250754655    61.8878286962     0.0220392015     0.0001209433 25124.0894292222
   -0.8693877551     1.0539619319    60.3875704629    61.6564838192     0.0221467160     0.0001209107 25126.3908079491
   -0.8673469388     1.0498467020    60.1517851626    61.4267278750     0.0222519481     0.0001208784 25128.6867346994
   -0.8653061224     1.0457607758    59.9176788330    61.1985107672     0.0223547344     0.0001208455 25130.9772050028
   -0.8632653061     1.0417034691    59.6852122830    60.9716628379     0.0224527978     0.0001208044 25133.2620881779
   -0.8612244898     1.0376741234    59.4543477825    60.7462247624     0.0225475068     0.0001207596 25135.5412003557
   -0.8591836735     1.0336721045    59.2250489867    60.5222305041     0.0226400885     0.0001207150 25137.8144867894
   -0.8571428571     1.0296968008    58.9972808661    60.2996472193     0.0227305809     0.0001206708 25140.0819423192
   -0.8551020408     1.0257476230    58.7710096411    60.0783482485     0.0228173631     0.0001206213 25142.3435263140
   -0.8530612245     1.0218240020    58.5462027200    59.8582295059     0.0228991873     0.0001205625 25144.5989979163
   -0.8510204082     1.0179253889    58.3228286418    59.6394146138     0.0229787601     0.0001205032 25146.8482061952
   -0.8489795918     1.0140512533    58.1008570218    59.4218901075     0.0230563769     0.0001204442 25149.0911319182
   -0.8469387755     1.0102010827    57.8802585008    59.2056096804     0.0231317418     0.0001203845 25151.3278426250
   -0.8448979592     1.0063743820    57.6610046973    58.9904109495     0.0232025162     0.0001203163 25153.5581312463
   -0.8428571429     1.0025706719    57.4430681625    58.7763207959     0.0232696482     0.0001202428 25155.7817961773
   -0.8408163265     0.9987894889    57.2264223382    58.5634163371     0.0233349474     0.0001201698 25157.9987843532
   -0.8387755102     0.9950303845    57.0110415164    58.3516736163     0.0233984442     0.0001200971 25160.2091528068
   -0.8367346939     0.9912929239    56.7969008020    58.1410142327     0.0234592049     0.0001200217 25162.4127955526
   -0.8346938776     0.9875766864    56.5839760772    57.9313127547     0.0235154612     0.0001199380 25164.6095693005
   -0.8326530612     0.9838812640    56.3722439680    57.7226461054     0.0235689635     0.0001198513 25166.7993658054
   -0.8306122449     0.9802062611    56.1616818123    57.5150525545     0.0236207755     0.0001197652 25168.9821176466
   -0.8285714286     0.9765512941    55.9522676300    57.3085116336     0.0236709233     0.0001196794 25171.1578478970
   -0.8265306122     0.9729159908    55.7439800947    57.1029369250     0.0237182711     0.0001195905 25173.3265262036
   -0.8244897959     0.9692999900    55.5367985066    56.8981790047     0.0237605721     0.0001194912 25175.4879775684
   -0.8224489796     0.9657029407    55.3307027670    56.6943920600     0.0238008681     0.0001193910 25177.6420083691
   -0.8204081633     0.9621245024    55.1256733545    56.4915820235     0.0238396036     0.0001192913 25179.7886415265
   -0.8183673469     0.9585643440    54.9216913014    56.2897313355     0.0238768029     0.0001191922 25181.9278897895
   -0.8163265306     0.9550221437    54.7187381727    56.0887754434     0.0239116612     0.0001190909 25184.0597359909
   -0.8142857143     0.9514975886    54.5167960447    55.8885443434     0.0239415243     0.0001189791 25186.1840199804
   -0.8122448980     0.9479903746    54.3158474857    55.6892229552     0.0239699238     0.0001188679 25188.3006241382
   -0.8102040816     0.9445002057    54.1158755372    55.4907956215     0.0239968824     0.0001187572 25190.4095380306
   -0.8081632653     0.9410267938    53.9168636960    55.2932471170     0.0240224225     0.0001186470 25192.5108271415
   -0.8061224490     0.9375698586    53.7187958976    55.0965018752     0.0240455054     0.0001185339 25194.6044226461
   -0.8040816327     0.9341291270    53.5216564995    54.9004934759     0.0240652451     0.0001184154 25196.6902221824
   -0.8020408163     0.9307043332    53.3254302661    54.7052843957     0.0240829978     0.0001182953 25198.7681614777
   -0.8000000000     0.9272952180    53.1301023542    54.5108974074     0.0240994200     0.0001181758 25200.8382234461
   -0.7979591837     0.9239015290    52.9356582985    54.3173192011     0.0241145319     0.0001180568 25202.9004364623
   -0.7959183673     0.9205230201    52.7420839987    54.1245368047     0.0241283532     0.0001179383 25204.9548197151
   -0.7938775510     0.9171594514    52.5493657065    53.9323304819     0.0241372888     0.0001178092 25207.0012534324
   -0.7918367347     0.9138105888    52.3574900132    53.7408783302     0.0241446810     0.0001176797 25209.0395980263
   -0.7897959184     0.9104762040    52.1664438387    53.5501853769     0.0241508458     0.0001175508 25211.0698607277
   -0.7877551020     0.9071560743    51.9762144194    53.3602399157     0.0241558018     0.0001174223 25213.0920751058
   -0.7857142857     0.9038499823    51.7867892983    53.1710188719     0.0241593637     0.0001172938 25215.1062563392
   -0.7836734694     0.9005577156    51.5981563144    52.9824620538     0.0241606930     0.0001171625 25217.1123835153
   -0.7816326531     0.8972790671    51.4103035930    52.7945560988     0.0241597639     0.0001170283 25219.1103798622
   -0.7795918367     0.8940138344    51.2232195364    52.6073538455     0.0241577010     0.0001168947 25221.1002346438
   -0.7775510204     0.8907618196    51.0368928148    52.4208449276     0.0241545211     0.0001167615 25223.0819750776
   -0.7755102041     0.8875228296    50.8513123577    52.2350192186     0.0241502406     0.0001166289 25225.0556278185
   -0.7734693878     0.8842966755    50.6664673458    52.0498261096     0.0241441652     0.0001164946 25227.0211897950
   -0.7714285714     0.8810831728    50.4823472028    51.8652377856     0.0241359939     0.0001163576 25228.9786241503
   -0.7693877551     0.8778821410    50.2989415880    51.6812868358     0.0241264760     0.0001162202 25230.9279108191
   -0.7673469388     0.8746934035    50.1162403889    51.4979811444     0.0241159256     0.0001160834 25232.8690484904
   -0.7653061224     0.8715167878    49.9342337142    51.3153116838     0.0241043578     0.0001159470 25234.8020538908
   -0.7632653061     0.8683521249    49.7529118872    51.1332657729     0.0240917201     0.0001158108 25236.7269611004
   -0.7612244898     0.8651992496    49.5722654391    50.9517909373     0.0240772621     0.0001156726 25238.6437691478
   -0.7591836735     0.8620580001    49.3922851027    50.7708961917     0.0240613026     0.0001155333 25240.5524470672
   -0.7571428571     0.8589282182    49.2129618067    50.5906037366     0.0240443876     0.0001153945 25242.4530091348
   -0.7551020408     0.8558097488    49.0342866700    50.4109054828     0.0240265308     0.0001152561 25244.3454734076
   -0.7530612245     0.8527024401    48.8562509955    50.2317935117     0.0240077459     0.0001151181 25246.2298615237
   -0.7510204082     0.8496061434    48.6788462656    50.0532512322     0.0239878919     0.0001149802 25248.1061985696
   -0.7489795918     0.8465207132    48.5020641364    49.8752640151     0.0239668592     0.0001148418 25249.9744997242
   -0.7469387755     0.8434460067    48.3258964330    49.6978329464     0.0239448093     0.0001147035 25251.8347707399
   -0.7448979592     0.8403818842    48.1503351447    49.5209581987     0.0239218851     0.0001145656 25253.6870350378
   -0.7428571429     0.8373282086    47.9753724206    49.3446326350     0.0238980991     0.0001144282 25255.5313170363
   -0.7408163265     0.8342848456    47.8010005647    49.1688492613     0.0238734634     0.0001142912 25257.3676419193
   -0.7387755102     0.8312516635    47.6272120320    48.9936012223     0.0238479902     0.0001141546 25259.1960356054
   -0.7367346939     0.8282285332    47.4539994242    48.8188817975     0.0238216913     0.0001140184 25261.0165200665
   -0.7346938776     0.8252153280    47.2813554856    48.6446843976     0.0237945783     0.0001138827 25262.8291190633
   -0.7326530612     0.8222119238    47.1092730996    48.4710025622     0.0237666626     0.0001137473 25264.6338643054
   -0.7306122449     0.8192181987    46.9377452847    48.2978299549     0.0237379556     0.0001136123 25266.4307869217
   -0.7285714286     0.8162340331    46.7667651908    48.1251622289     0.0237085009     0.0001134779 25268.2199174287
   -0.7265306122     0.8132593097    46.5963260961    47.9530021039     0.0236784632     0.0001133444 25270.0012857440
   -0.7244897959     0.8102939134    46.4264214035    47.7813512470     0.0236479869     0.0001132122 25271.7749212003
   -0.7224489796     0.8073377312    46.2570446372    47.6101853276     0.0236167603     0.0001130804 25273.5408525579
   -0.7204081633     0.8043906520    46.0881894401    47.4394985462     0.0235847931     0.0001129490 25275.2991080178
   -0.7183673469     0.8014525670    45.9198495701    47.2692852638     0.0235520959     0.0001128180 25277.0497152339
   -0.7163265306     0.7985233692    45.7520188977    47.0995399374     0.0235186789     0.0001126873 25278.7927013247
   -0.7142857143     0.7956029535    45.5846914028    46.9302842654     0.0234850258     0.0001125584 25280.5280994462
   -0.7122448980     0.7926912167    45.4178611722    46.7615007788     0.0234509351     0.0001124307 25282.2559651159
   -0.7102040816     0.7897880574    45.2515223968    46.5931721908     0.0234162063     0.0001123035 25283.9763287967
   -0.7081632653     0.7868933760    45.0856693690    46.4252901283     0.0233807930     0.0001121766 25285.6892165676
   -0.7061224490     0.7840070746    44.9202964804    46.2578495112     0.0233447043     0.0001120501 25287.3946534240
   -0.7040816327     0.7811290570    44.7553982192    46.0908514484     0.0233080559     0.0001119242 25289.0926633052
   -0.7020408163     0.7782592286    44.5909691678    45.9243163447     0.0232712983     0.0001118003 25290.7832901865
   -0.7000000000     0.7753974966    44.4270040008    45.7582593979     0.0232347899     0.0001116795 25292.4666106940
   -0.6979591837     0.7725437695    44.2634974825    45.5926240618     0.0231976350     0.0001115590 25294.1426630630
   -0.6959183673     0.7696979575    44.1004444649    45.4274056731     0.0231598421     0.0001114388 25295.8114777340
   -0.6938775510     0.7668599722    43.9378398857    45.2625995821     0.0231214185     0.0001113190 25297.4730787600
   -0.6918367347     0.7640297268    43.7756787663    45.0982013479     0.0230823735     0.0001111994 25299.1274839777
