shape model output for Uranus's 1-bar isobaric surface. models are described in Mankovich et al. 2026, PSJ.
this model assumes the composite asymmetric wind profile described in Sromovsky et al. (2015, Icarus 258) Section 4.5 and Table 6.
these solutions vary the (north) polar radius to fit the pair of Voyager 2 occultations reported in Lindal et al. 1987 to a Gaussian standard deviation of 5 km.
mu=sin(phi), phi [radians], and lat_deg [degrees] refer to planetocentric latitude; lat_pg_deg gives planetographic latitude in degrees.
              mu          phi_rad          lat_deg       lat_pg_deg          psi_rad    omega_rad_s-1             r_km 
   -1.0000000000     1.5707963268    90.0000000000    90.0000000000     0.0000000000     0.0001211146 25033.5813733653
   -0.9998144712     1.5515331758    88.8963027451    88.9524188398     0.0009794106     0.0001211146 25033.8175484611
   -0.9996289425     1.5435536961    88.4391122386    88.5184565175     0.0013848189     0.0001211146 25034.0536896454
   -0.9994434137     1.5374305386    88.0882811581    88.1854382279     0.0016957108     0.0001211146 25034.2897968393
   -0.9992578850     1.5322682374    87.7925030866    87.9046679727     0.0019576466     0.0001211146 25034.5258700425
   -0.9990723562     1.5277199472    87.5319052508    87.6572843227     0.0021882776     0.0001211146 25034.7619092589
   -0.9988868275     1.5236077873    87.2962958471    87.4336142611     0.0023966584     0.0001211146 25034.9979144916
   -0.9987012987     1.5198260904    87.0796205724    87.2279117317     0.0025881690     0.0001211146 25035.2338857416
   -0.9985157699     1.5163060092    86.8779347757    87.0364329636     0.0027663152     0.0001211146 25035.4698230089
   -0.9983302412     1.5129997231    86.6884985354    86.8565775957     0.0029335330     0.0001211146 25035.7057262927
   -0.9981447124     1.5098724146    86.5093169626    86.6864523726     0.0030915961     0.0001211146 25035.9415955909
   -0.9979591837     1.5068978001    86.3388841007    86.5246280779     0.0032418440     0.0001211146 25036.1774309011
   -0.9959183673     1.4804147767    84.8215186329    85.0836214068     0.0045745564     0.0001211146 25038.7693750090
   -0.9938775510     1.4600831244    83.6566007642    83.9769006901     0.0055902883     0.0001211146 25041.3571999231
   -0.9918367347     1.4429339318    82.6740244067    83.0430559609     0.0064408157     0.0001211146 25043.9409001811
   -0.9897959184     1.4278174270    81.8079124837    82.2195865418     0.0071850678     0.0001211146 25046.5204682359
   -0.9877551020     1.4141440401    81.0244851196    81.4744481188     0.0078533358     0.0001211146 25049.0958964264
   -0.9857142857     1.4015635991    80.3036789465    80.7886106257     0.0084636544     0.0001211146 25051.6671788533
   -0.9836734694     1.3898479862    79.6324237728    80.1496786079     0.0090277999     0.0001211146 25054.2343100004
   -0.9816326531     1.3788387766    79.0016425268    79.5490446928     0.0095539701     0.0001211146 25056.7972842764
   -0.9795918367     1.3684206412    78.4047273409    78.9804437420     0.0100481468     0.0001211146 25059.3560958599
   -0.9775510204     1.3585065303    77.8366906282    78.4391474612     0.0105148553     0.0001211146 25061.9107386563
   -0.9755102041     1.3490288258    77.2936581616    77.9214835026     0.0109576193     0.0001211146 25064.4612062975
   -0.9734693878     1.3399337634    76.7725494708    77.4245322851     0.0113792468     0.0001211146 25067.0074921579
   -0.9714285714     1.3311777582    76.2708673246    76.9459273053     0.0117820193     0.0001211146 25069.5495893748
   -0.9693877551     1.3227248956    75.7865539757    76.4837187848     0.0121678213     0.0001211146 25072.0874922266
   -0.9673469388     1.3145451659    75.3178899826    76.0362777068     0.0125382311     0.0001211146 25074.6211955160
   -0.9653061224     1.3066131882    74.8634211408    75.6022265181     0.0128945864     0.0001211146 25077.1506918704
   -0.9632653061     1.2989072697    74.4219045316    75.1803879635     0.0132380332     0.0001211146 25079.6759744414
   -0.9612244898     1.2914086960    73.9922679079    74.7697465715     0.0135695625     0.0001211146 25082.1970367712
   -0.9591836735     1.2841011890    73.5735785965    74.3694191668     0.0138900383     0.0001211146 25084.7138726596
   -0.9571428571     1.2769704845    73.1650193268    73.9786319500     0.0142002191     0.0001211146 25087.2264760682
   -0.9551020408     1.2700040004    72.7658691871    73.5967024422     0.0145007758     0.0001211146 25089.7348410504
   -0.9530612245     1.2631905710    72.3754884407    73.2230250890     0.0147923050     0.0001211146 25092.2389616995
   -0.9510204082     1.2565202341    71.9933062850    72.8570596554     0.0150753402     0.0001211146 25094.7388321111
   -0.9489795918     1.2499840563    71.6188108859    72.4983217790     0.0153503609     0.0001211146 25097.2344463549
   -0.9469387755     1.2435739909    71.2515411916    72.1463752094     0.0156177999     0.0001211146 25099.7257984541
   -0.9448979592     1.2372827589    70.8910801509    71.8008253806     0.0158780496     0.0001211146 25102.2128823699
   -0.9428571429     1.2311037506    70.5370490537    71.4613140458     0.0161314673     0.0001211146 25104.6956919910
   -0.9408163265     1.2250309424    70.1891027733    71.1275147693     0.0163783791     0.0001211146 25107.1742211253
   -0.9387755102     1.2190588266    69.8469257429    70.7991291122     0.0166190839     0.0001211146 25109.6484634944
   -0.9367346939     1.2131823517    69.5102285299    70.4758833866     0.0168538567     0.0001211146 25112.1184127300
   -0.9346938776     1.2073968710    69.1787449051    70.1575258782     0.0170829506     0.0001211146 25114.5840623713
   -0.9326530612     1.2016980990    68.8522293213    69.8438244567     0.0173066000     0.0001211146 25117.0454058641
   -0.9306122449     1.1960820730    68.5304547326    69.5345645100     0.0175250217     0.0001211146 25119.5024368846
   -0.9285714286     1.1905451201    68.2132107017    69.2295471508     0.0177384173     0.0001211146 25121.9551499453
   -0.9265306122     1.1850838286    67.9003017483    68.9285876518     0.0179469747     0.0001211146 25124.4035389595
   -0.9244897959     1.1796950225    67.5915459031    68.6315140754     0.0181508687     0.0001211146 25126.8475978172
   -0.9224489796     1.1743757395    67.2867734365    68.3381660702     0.0183502632     0.0001211146 25129.2873204240
   -0.9204081633     1.1691232113    66.9858257369    68.0483938078     0.0185453114     0.0001211146 25131.7227006866
   -0.9183673469     1.1639348463    66.6885543185    67.7620570431     0.0187361571     0.0001211146 25134.1537325013
   -0.9163265306     1.1588082142    66.3948199388    67.4790242792     0.0189229355     0.0001211146 25136.5804181664
   -0.9142857143     1.1537410325    66.1044918138    67.1991720214     0.0191057739     0.0001211146 25139.0027362224
   -0.9122448980     1.1487311539    65.8174469161    66.9223407731     0.0192840357     0.0001211116 25141.4206250835
   -0.9102040816     1.1437765557    65.5335693460    66.6484485877     0.0194583135     0.0001211076 25143.8340403835
   -0.9081632653     1.1388753294    65.2527497676    66.3774076956     0.0196289838     0.0001211036 25146.2429538094
   -0.9061224490     1.1340256726    64.9748848997    66.1091300403     0.0197963122     0.0001211003 25148.6473590527
   -0.9040816327     1.1292258803    64.6998770572    65.8436218653     0.0199621127     0.0001211042 25151.0473805786
   -0.9020408163     1.1244743380    64.4276337361    65.5806889491     0.0201246099     0.0001211080 25153.4431150497
   -0.9000000000     1.1197695150    64.1580672368    65.3202485398     0.0202838902     0.0001211119 25155.8345873532
   -0.8979591837     1.1151099586    63.8910943224    65.0622000327     0.0204396505     0.0001211142 25158.2217578870
   -0.8959183673     1.1104942885    63.6266359071    64.8064351640     0.0205913815     0.0001211130 25160.6045483017
   -0.8938775510     1.1059211919    63.3646167727    64.5529382236     0.0207401219     0.0001211117 25162.9828798949
   -0.8918367347     1.1013894190    63.1049653087    64.3016416908     0.0208859429     0.0001211105 25165.3566802190
   -0.8897959184     1.0968977787    62.8476132749    64.0524212867     0.0210278667     0.0001211055 25167.7258829499
   -0.8877551020     1.0924451350    62.5924955840    63.8051866298     0.0211654516     0.0001210950 25170.0904274116
   -0.8857142857     1.0880304035    62.3395501007    63.5599616326     0.0213001995     0.0001210843 25172.4502581422
   -0.8836734694     1.0836525480    62.0887174586    63.3166961162     0.0214322707     0.0001210737 25174.8053244999
   -0.8816326531     1.0793105778    61.8399408902    63.0752840233     0.0215608051     0.0001210599 25177.1555758876
   -0.8795918367     1.0750035447    61.5931660703    62.8356104254     0.0216847448     0.0001210391 25179.5008104539
   -0.8775510204     1.0707305406    61.3483409720    62.5977382741     0.0218060966     0.0001210183 25181.8409447277
   -0.8755102041     1.0664906953    61.1054157324    62.3616244185     0.0219249777     0.0001209976 25184.1759679215
   -0.8734693878     1.0622831742    60.8643425293    62.1271907230     0.0220408589     0.0001209751 25186.5058442112
   -0.8714285714     1.0581071761    60.6250754655    61.8942670130     0.0221515713     0.0001209433 25188.8303987953
   -0.8693877551     1.0539619319    60.3875704629    61.6629553427     0.0222596654     0.0001209107 25191.1494775048
   -0.8673469388     1.0498467020    60.1517851626    61.4332319584     0.0223654658     0.0001208784 25193.4630654547
   -0.8653061224     1.0457607758    59.9176788330    61.2050466841     0.0224688077     0.0001208455 25195.7711756654
   -0.8632653061     1.0417034691    59.6852122830    60.9782288260     0.0225673960     0.0001208044 25198.0736518015
   -0.8612244898     1.0376741234    59.4543477825    60.7528196662     0.0226626096     0.0001207596 25200.3703000546
   -0.8591836735     1.0336721045    59.2250489867    60.5288537150     0.0227556853     0.0001207150 25202.6610745562
   -0.8571428571     1.0296968008    58.9972808661    60.3062981413     0.0228466614     0.0001206708 25204.9459933790
   -0.8551020408     1.0257476230    58.7710096411    60.0850255470     0.0229339040     0.0001206213 25207.2250117509
   -0.8530612245     1.0218240020    58.5462027200    59.8649312727     0.0230161552     0.0001205625 25209.4978594730
   -0.8510204082     1.0179253889    58.3228286418    59.6461401550     0.0230961429     0.0001205032 25211.7643812995
   -0.8489795918     1.0140512533    58.1008570218    59.4286388604     0.0231741648     0.0001204442 25214.0245960117
   -0.8469387755     1.0102010827    57.8802585008    59.2123809375     0.0232499226     0.0001203845 25216.2785191225
   -0.8448979592     1.0063743820    57.6610046973    58.9972029490     0.0233210590     0.0001203163 25218.5260356284
   -0.8428571429     1.0025706719    57.4430681625    58.7831321905     0.0233885295     0.0001202428 25220.7668695113
   -0.8408163265     0.9987894889    57.2264223382    58.5702465895     0.0234541578     0.0001201698 25223.0009413003
   -0.8387755102     0.9950303845    57.0110415164    58.3585221995     0.0235179745     0.0001200971 25225.2283234022
   -0.8367346939     0.9912929239    56.7969008020    58.1478801965     0.0235790386     0.0001200217 25227.4489560439
   -0.8346938776     0.9875766864    56.5839760772    57.9381943418     0.0236355675     0.0001199380 25229.6626975030
   -0.8326530612     0.9838812640    56.3722439680    57.7295423397     0.0236893255     0.0001198513 25231.8693775725
   -0.8306122449     0.9802062611    56.1616818123    57.5219629399     0.0237413844     0.0001197652 25234.0689548779
   -0.8285714286     0.9765512941    55.9522676300    57.3154356821     0.0237917708     0.0001196794 25236.2614575575
   -0.8265306122     0.9729159908    55.7439800947    57.1098736315     0.0238393394     0.0001195905 25238.4468859927
   -0.8244897959     0.9692999900    55.5367985066    56.9051263309     0.0238818258     0.0001194912 25240.6249940458
   -0.8224489796     0.9657029407    55.3307027670    56.7013493473     0.0239222957     0.0001193910 25242.7956178237
   -0.8204081633     0.9621245024    55.1256733545    56.4985488115     0.0239611969     0.0001192913 25244.9587843962
   -0.8183673469     0.9585643440    54.9216913014    56.2967071726     0.0239985542     0.0001191922 25247.1145226331
   -0.8163265306     0.9550221437    54.7187381727    56.0957595074     0.0240335562     0.0001190909 25249.2628096344
   -0.8142857143     0.9514975886    54.5167960447    55.8955345961     0.0240635272     0.0001189791 25251.4034541505
   -0.8122448980     0.9479903746    54.3158474857    55.6962189621     0.0240920272     0.0001188679 25253.5363456338
   -0.8102040816     0.9445002057    54.1158755372    55.4977969576     0.0241190788     0.0001187572 25255.6614987286
   -0.8081632653     0.9410267938    53.9168636960    55.3002533600     0.0241447045     0.0001186470 25257.7789424098
   -0.8061224490     0.9375698586    53.7187958976    55.1035121325     0.0241678575     0.0001185339 25259.8886695908
   -0.8040816327     0.9341291270    53.5216564995    54.9075064420     0.0241876444     0.0001184154 25261.9905333398
   -0.8020408163     0.9307043332    53.3254302661    54.7122993779     0.0242054323     0.0001182953 25264.0844518368
   -0.8000000000     0.9272952180    53.1301023542    54.5179140113     0.0242218828     0.0001181758 25266.1704284953
   -0.7979591837     0.9239015290    52.9356582985    54.3243370396     0.0242370163     0.0001180568 25268.2485012152
   -0.7959183673     0.9205230201    52.7420839987    54.1315554959     0.0242508525     0.0001179383 25270.3186832875
   -0.7938775510     0.9171594514    52.5493657065    53.9393479964     0.0242597675     0.0001178092 25272.3808395331
   -0.7918367347     0.9138105888    52.3574900132    53.7478941630     0.0242671303     0.0001176797 25274.4348416497
   -0.7897959184     0.9104762040    52.1664438387    53.5571991648     0.0242732595     0.0001175508 25276.4806977672
   -0.7877551020     0.9071560743    51.9762144194    53.3672513025     0.0242781736     0.0001174223 25278.5184540844
   -0.7857142857     0.9038499823    51.7867892983    53.1780274106     0.0242816857     0.0001172938 25280.5480955098
   -0.7836734694     0.9005577156    51.5981563144    52.9894669090     0.0242829508     0.0001171625 25282.5695831357
   -0.7816326531     0.8972790671    51.4103035930    52.8015564257     0.0242819427     0.0001170283 25284.5828912113
   -0.7795918367     0.8940138344    51.2232195364    52.6143493111     0.0242797949     0.0001168947 25286.5880066040
   -0.7775510204     0.8907618196    51.0368928148    52.4278352036     0.0242765244     0.0001167615 25288.5849515086
   -0.7755102041     0.8875228296    50.8513123577    52.2420039806     0.0242721477     0.0001166289 25290.5737428490
   -0.7734693878     0.8842966755    50.6664673458    52.0568047095     0.0242659647     0.0001164946 25292.5543472428
   -0.7714285714     0.8810831728    50.4823472028    51.8722094362     0.0242576721     0.0001163576 25294.5267445276
   -0.7693877551     0.8778821410    50.2989415880    51.6882510925     0.0242480252     0.0001162202 25296.4909281036
   -0.7673469388     0.8746934035    50.1162403889    51.5049377052     0.0242373405     0.0001160834 25298.4469044095
   -0.7653061224     0.8715167878    49.9342337142    51.3222602535     0.0242256332     0.0001159470 25300.3947086476
   -0.7632653061     0.8683521249    49.7529118872    51.1402060283     0.0242128505     0.0001158108 25302.3343584667
   -0.7612244898     0.8651992496    49.5722654391    50.9587222049     0.0241982355     0.0001156726 25304.2658233665
   -0.7591836735     0.8620580001    49.3922851027    50.7778179444     0.0241821100     0.0001155333 25306.1890899536
   -0.7571428571     0.8589282182    49.2129618067    50.5975156946     0.0241650240     0.0001153945 25308.1041624054
   -0.7551020408     0.8558097488    49.0342866700    50.4178073714     0.0241469915     0.0001152561 25310.0110618318
   -0.7530612245     0.8527024401    48.8562509955    50.2386850619     0.0241280261     0.0001151181 25311.9098247651
   -0.7510204082     0.8496061434    48.6788462656    50.0601321081     0.0241079859     0.0001149802 25313.8004746868
   -0.7489795918     0.8465207132    48.5020641364    49.8821338275     0.0240867600     0.0001148418 25315.6830183766
   -0.7469387755     0.8434460067    48.3258964330    49.7046913792     0.0240645115     0.0001147035 25317.5574682348
   -0.7448979592     0.8403818842    48.1503351447    49.5278049993     0.0240413843     0.0001145656 25319.4238418926
   -0.7428571429     0.8373282086    47.9753724206    49.3514675546     0.0240173909     0.0001144282 25321.2821620286
   -0.7408163265     0.8342848456    47.8010005647    49.1756720552     0.0239925436     0.0001142912 25323.1324561924
   -0.7387755102     0.8312516635    47.6272120320    49.0004116504     0.0239668546     0.0001141546 25324.9747558393
   -0.7367346939     0.8282285332    47.4539994242    48.8256796235     0.0239403358     0.0001140184 25326.8090856861
   -0.7346938776     0.8252153280    47.2813554856    48.6514693890     0.0239129987     0.0001138827 25328.6354661981
   -0.7326530612     0.8222119238    47.1092730996    48.4777744889     0.0238848551     0.0001137473 25330.4539213598
   -0.7306122449     0.8192181987    46.9377452847    48.3045885904     0.0238559160     0.0001136123 25332.2644787361
   -0.7285714286     0.8162340331    46.7667651908    48.1319073654     0.0238262257     0.0001134779 25334.0671693525
   -0.7265306122     0.8132593097    46.5963260961    47.9597336086     0.0237959501     0.0001133444 25335.8620275803
   -0.7244897959     0.8102939134    46.4264214035    47.7880690531     0.0237652347     0.0001132122 25337.6490910062
   -0.7224489796     0.8073377312    46.2570446372    47.6168892237     0.0237337653     0.0001130804 25339.4283947132
   -0.7204081633     0.8043906520    46.0881894401    47.4461883236     0.0237015518     0.0001129490 25341.1999642354
   -0.7183673469     0.8014525670    45.9198495701    47.2759607173     0.0236686045     0.0001128180 25342.9638264809
   -0.7163265306     0.7985233692    45.7520188977    47.1062008652     0.0236349340     0.0001126873 25344.7200112844
   -0.7142857143     0.7956029535    45.5846914028    46.9369306883     0.0236010278     0.0001125584 25346.4685513141
   -0.7122448980     0.7926912167    45.4178611722    46.7681326210     0.0235666826     0.0001124307 25348.2094819838
   -0.7102040816     0.7897880574    45.2515223968    46.5997892833     0.0235316964     0.0001123035 25349.9428413667
   -0.7081632653     0.7868933760    45.0856693690    46.4318922801     0.0234960223     0.0001121766 25351.6686636052
   -0.7061224490     0.7840070746    44.9202964804    46.2644365321     0.0234596695     0.0001120501 25353.3869521843
   -0.7040816327     0.7811290570    44.7553982192    46.0974232038     0.0234227546     0.0001119242 25355.0977632913
   -0.7020408163     0.7782592286    44.5909691678    45.9308729091     0.0233857319     0.0001118003 25356.8011554767
   -0.7000000000     0.7753974966    44.4270040008    45.7648010079     0.0233489625     0.0001116795 25358.4971778289
   -0.6979591837     0.7725437695    44.2634974825    45.5991505383     0.0233115435     0.0001115590 25360.1858702342
   -0.6959183673     0.7696979575    44.1004444649    45.4339168395     0.0232734834     0.0001114388 25361.8672636282
   -0.6938775510     0.7668599722    43.9378398857    45.2690952640     0.0232347895     0.0001113190 25363.5413802380
   -0.6918367347     0.7640297268    43.7756787663    45.1046813737     0.0231954713     0.0001111994 25365.2082351367
