shape model output for Uranus's 1-bar isobaric surface. models are described in Mankovich et al. 2026, PSJ.
this model assumes the composite asymmetric wind profile described in Sromovsky et al. (2015, Icarus 258) Section 4.5 and Table 6.
these solutions vary the (north) polar radius to fit the pair of Voyager 2 occultations reported in Lindal et al. 1987 to a Gaussian standard deviation of 5 km.
mu=sin(phi), phi [radians], and lat_deg [degrees] refer to planetocentric latitude; lat_pg_deg gives planetographic latitude in degrees.
              mu          phi_rad          lat_deg       lat_pg_deg          psi_rad    omega_rad_s-1             r_km 
   -1.0000000000     1.5707963268    90.0000000000    90.0000000000     0.0000000000     0.0001211146 24965.4399180632
   -0.9998144712     1.5515331758    88.8963027451    88.9521234787     0.0009742556     0.0001211146 24965.6742106172
   -0.9996289425     1.5435536961    88.4391122386    88.5180388764     0.0013775297     0.0001211146 24965.9084694561
   -0.9994434137     1.5374305386    88.0882811581    88.1849268007     0.0016867847     0.0001211146 24966.1426945001
   -0.9992578850     1.5322682374    87.7925030866    87.9040775158     0.0019473412     0.0001211146 24966.3768857489
   -0.9990723562     1.5277199472    87.5319052508    87.6566242706     0.0021767575     0.0001211146 24966.6110432069
   -0.9988868275     1.5236077873    87.2962958471    87.4328913187     0.0023840407     0.0001211146 24966.8451668769
   -0.9987012987     1.5198260904    87.0796205724    87.2271309816     0.0025745423     0.0001211146 24967.0792567604
   -0.9985157699     1.5163060092    86.8779347757    87.0355984318     0.0027517499     0.0001211146 24967.3133128574
   -0.9983302412     1.5129997231    86.6884985354    86.8556925739     0.0029180865     0.0001211146 24967.5473351671
   -0.9981447124     1.5098724146    86.5093169626    86.6855196176     0.0030753165     0.0001211146 24967.7813236876
   -0.9979591837     1.5068978001    86.3388841007    86.5236499431     0.0032247723     0.0001211146 24968.0152784166
   -0.9959183673     1.4804147767    84.8215186329    85.0822404016     0.0045504533     0.0001211146 24970.5865491185
   -0.9938775510     1.4600831244    83.6566007642    83.9752121166     0.0055608171     0.0001211146 24973.1537244949
   -0.9918367347     1.4429339318    82.6740244067    83.0411094098     0.0064068419     0.0001211146 24975.7167991810
   -0.9897959184     1.4278174270    81.8079124837    82.2174138669     0.0071471474     0.0001211146 24978.2757656998
   -0.9877551020     1.4141440401    81.0244851196    81.4720720627     0.0078118658     0.0001211146 24980.8306164561
   -0.9857142857     1.4015635991    80.3036789465    80.7860485093     0.0084189371     0.0001211146 24983.3813456376
   -0.9836734694     1.3898479862    79.6324237728    80.1469442146     0.0089800758     0.0001211146 24985.9279478210
   -0.9816326531     1.3788387766    79.0016425268    79.5461493448     0.0095034368     0.0001211146 24988.4704175077
   -0.9795918367     1.3684206412    78.4047273409    78.9773969666     0.0099949705     0.0001211146 24991.0087489679
   -0.9775510204     1.3585065303    77.8366906282    78.4359574289     0.0104591788     0.0001211146 24993.5429361961
   -0.9755102041     1.3490288258    77.2936581616    77.9181573282     0.0108995666     0.0001211146 24996.0729729114
   -0.9734693878     1.3399337634    76.7725494708    77.4210762425     0.0113189275     0.0001211146 24998.5988525729
   -0.9714285714     1.3311777582    76.2708673246    76.9423469858     0.0117195309     0.0001211146 25001.1205684009
   -0.9693877551     1.3227248956    75.7865539757    76.4800192162     0.0121032517     0.0001211146 25003.6381147165
   -0.9673469388     1.3145451659    75.3178899826    76.0324634454     0.0124716597     0.0001211146 25006.1514864695
   -0.9653061224     1.3066131882    74.8634211408    75.5983017207     0.0128260857     0.0001211146 25008.6606763648
   -0.9632653061     1.2989072697    74.4219045316    75.1763564450     0.0131676699     0.0001211146 25011.1656776263
   -0.9612244898     1.2914086960    73.9922679079    74.7656118514     0.0134973981     0.0001211146 25013.6664838737
   -0.9591836735     1.2841011890    73.5735785965    74.3651845072     0.0138161295     0.0001211146 25016.1630889881
   -0.9571428571     1.2769704845    73.1650193268    73.9743003872     0.0141246191     0.0001211146 25018.6554870151
   -0.9551020408     1.2700040004    72.7658691871    73.5922768130     0.0144235340     0.0001211146 25021.1436720941
   -0.9530612245     1.2631905710    72.3754884407    73.2185080528     0.0147134679     0.0001211146 25023.6276384059
   -0.9510204082     1.2565202341    71.9933062850    72.8524537133     0.0149949514     0.0001211146 25026.1073801344
   -0.9489795918     1.2499840563    71.6188108859    72.4936292897     0.0152684615     0.0001211146 25028.5828914381
   -0.9469387755     1.2435739909    71.2515411916    72.1415984034     0.0155344289     0.0001211146 25031.0541664295
   -0.9448979592     1.2372827589    70.8910801509    71.7959663719     0.0157932439     0.0001211146 25033.5211991597
   -0.9428571429     1.2311037506    70.5370490537    71.4563748431     0.0160452619     0.0001211146 25035.9839836066
   -0.9408163265     1.2250309424    70.1891027733    71.1224972845     0.0162908074     0.0001211146 25038.4425136679
   -0.9387755102     1.2190588266    69.8469257429    70.7940351689     0.0165301779     0.0001211146 25040.8967831546
   -0.9367346939     1.2131823517    69.5102285299    70.4707147275     0.0167636466     0.0001211146 25043.3467857875
   -0.9346938776     1.2073968710    69.1787449051    70.1522841711     0.0169914656     0.0001211146 25045.7925151951
   -0.9326530612     1.2016980990    68.8522293213    69.8385113005     0.0172138679     0.0001211146 25048.2339649118
   -0.9306122449     1.1960820730    68.5304547326    69.5291814396     0.0174310694     0.0001211146 25050.6711286588
   -0.9285714286     1.1905451201    68.2132107017    69.2240956420     0.0176432706     0.0001211146 25053.1040010442
   -0.9265306122     1.1850838286    67.9003017483    68.9230691250     0.0178506582     0.0001211146 25055.5325760795
   -0.9244897959     1.1796950225    67.5915459031    68.6259298998     0.0180534065     0.0001211146 25057.9568477384
   -0.9224489796     1.1743757395    67.2867734365    68.3325175669     0.0182516782     0.0001211146 25060.3768100138
   -0.9204081633     1.1691232113    66.9858257369    68.0426822530     0.0184456259     0.0001211146 25062.7924569040
   -0.9183673469     1.1639348463    66.6885543185    67.7562836709     0.0186353927     0.0001211146 25065.2037824000
   -0.9163265306     1.1588082142    66.3948199388    67.4731902836     0.0188211131     0.0001211146 25067.6107816977
   -0.9142857143     1.1537410325    66.1044918138    67.1932785617     0.0190029136     0.0001211146 25070.0134618546
   -0.9122448980     1.1487311539    65.8174469161    66.9163893308     0.0191801634     0.0001211116 25072.4117509766
   -0.9102040816     1.1437765557    65.5335693460    66.6424403831     0.0193534506     0.0001211076 25074.8055846159
   -0.9081632653     1.1388753294    65.2527497676    66.3713437905     0.0195231487     0.0001211036 25077.1949362950
   -0.9061224490     1.1340256726    64.9748848997    66.1030113901     0.0196895216     0.0001211003 25079.5798135829
   -0.9040816327     1.1292258803    64.6998770572    65.8374485815     0.0198543686     0.0001211042 25081.9603300745
   -0.9020408163     1.1244743380    64.4276337361    65.5744620037     0.0200159292     0.0001211080 25084.3366075150
   -0.9000000000     1.1197695150    64.1580672368    65.3139688770     0.0201742895     0.0001211119 25086.7086399615
   -0.8979591837     1.1151099586    63.8910943224    65.0558687552     0.0203291489     0.0001211142 25089.0763793790
   -0.8959183673     1.1104942885    63.6266359071    64.8000536308     0.0204800028     0.0001211130 25091.4397389429
   -0.8938775510     1.1059211919    63.3646167727    64.5465073163     0.0206278814     0.0001211117 25093.7986646530
   -0.8918367347     1.1013894190    63.1049653087    64.2951622792     0.0207728559     0.0001211105 25096.1531766001
   -0.8897959184     1.0968977787    62.8476132749    64.0458947179     0.0209139565     0.0001211055 25098.5031950315
   -0.8877551020     1.0924451350    62.5924955840    63.7986144626     0.0210507456     0.0001210950 25100.8485346465
   -0.8857142857     1.0880304035    62.3395501007    63.5533447215     0.0211847126     0.0001210843 25103.1891286394
   -0.8836734694     1.0836525480    62.0887174586    63.3100352611     0.0213160169     0.0001210737 25105.5250327297
   -0.8816326531     1.0793105778    61.8399408902    63.0685804400     0.0214438055     0.0001210599 25107.8561445481
   -0.8795918367     1.0750035447    61.5931660703    62.8288658429     0.0215670296     0.0001210391 25110.1822324185
   -0.8775510204     1.0707305406    61.3483409720    62.5909534774     0.0216876795     0.0001210183 25112.5032416194
   -0.8755102041     1.0664906953    61.1054157324    62.3548001497     0.0218058717     0.0001209976 25114.8191947210
   -0.8734693878     1.0622831742    60.8643425293    62.1203279849     0.0219210816     0.0001209751 25117.1300411773
   -0.8714285714     1.0581071761    60.6250754655    61.8873678542     0.0220311583     0.0001209433 25119.4355994591
   -0.8693877551     1.0539619319    60.3875704629    61.6560206018     0.0221386313     0.0001209107 25121.7357079735
   -0.8673469388     1.0498467020    60.1517851626    61.4262623287     0.0222438228     0.0001208784 25124.0303694925
   -0.8653061224     1.0457607758    59.9176788330    61.1980429452     0.0223465694     0.0001208455 25126.3195875184
   -0.8632653061     1.0417034691    59.6852122830    60.9711928664     0.0224445953     0.0001208044 25128.6032212723
   -0.8612244898     1.0376741234    59.4543477825    60.7457527225     0.0225392682     0.0001207596 25130.8810720390
   -0.8591836735     1.0336721045    59.2250489867    60.5217564394     0.0226318145     0.0001207150 25133.1531002452
   -0.8571428571     1.0296968008    58.9972808661    60.2991711753     0.0227222724     0.0001206708 25135.4193268429
   -0.8551020408     1.0257476230    58.7710096411    60.0778703136     0.0228090216     0.0001206213 25137.6796151397
   -0.8530612245     1.0218240020    58.5462027200    59.8577498186     0.0228908152     0.0001205625 25139.9338115577
   -0.8510204082     1.0179253889    58.3228286418    59.6389332263     0.0229703583     0.0001205032 25142.1817735234
   -0.8489795918     1.0140512533    58.1008570218    59.4214070617     0.0230479461     0.0001204442 25144.4234704239
   -0.8469387755     1.0102010827    57.8802585008    59.2051250233     0.0231232830     0.0001203845 25146.6589231749
   -0.8448979592     1.0063743820    57.6610046973    58.9899248114     0.0231940315     0.0001203163 25148.8879918337
   -0.8428571429     1.0025706719    57.4430681625    58.7758332732     0.0232611393     0.0001202428 25151.1104386803
   -0.8408163265     0.9987894889    57.2264223382    58.5629274672     0.0233264150     0.0001201698 25153.3262064161
   -0.8387755102     0.9950303845    57.0110415164    58.3511834331     0.0233898889     0.0001200971 25155.5353218489
   -0.8367346939     0.9912929239    56.7969008020    58.1405228097     0.0234506279     0.0001200217 25157.7377648659
   -0.8346938776     0.9875766864    56.5839760772    57.9308202214     0.0235068648     0.0001199380 25159.9333752663
   -0.8326530612     0.9838812640    56.3722439680    57.7221525260     0.0235603489     0.0001198513 25162.1219597088
   -0.8306122449     0.9802062611    56.1616818123    57.5145579651     0.0236121432     0.0001197652 25164.3035103092
   -0.8285714286     0.9765512941    55.9522676300    57.3080160706     0.0236622741     0.0001196794 25166.4780555028
   -0.8265306122     0.9729159908    55.7439800947    57.1024404645     0.0237096062     0.0001195905 25168.6455892302
   -0.8244897959     0.9692999900    55.5367985066    56.8976817887     0.0237518940     0.0001194912 25170.8058658824
   -0.8224489796     0.9657029407    55.3307027670    56.6938941362     0.0237921777     0.0001193910 25172.9587308120
   -0.8204081633     0.9621245024    55.1256733545    56.4910834210     0.0238309013     0.0001192913 25175.1041657930
   -0.8183673469     0.9585643440    54.9216913014    56.2892320911     0.0238680894     0.0001191922 25177.2422616115
   -0.8163265306     0.9550221437    54.7187381727    56.0882756137     0.0239029376     0.0001190909 25179.3729368053
   -0.8142857143     0.9514975886    54.5167960447    55.8880440713     0.0239327929     0.0001189791 25181.4960270213
   -0.8122448980     0.9479903746    54.3158474857    55.6887222727     0.0239611853     0.0001188679 25183.6114515527
   -0.8102040816     0.9445002057    54.1158755372    55.4902945632     0.0239881373     0.0001187572 25185.7192268607
   -0.8081632653     0.9410267938    53.9168636960    55.2927457140     0.0240136713     0.0001186470 25187.8193930684
   -0.8061224490     0.9375698586    53.7187958976    55.0960001885     0.0240367493     0.0001185339 25189.9118392690
   -0.8040816327     0.9341291270    53.5216564995    54.8999915974     0.0240564857     0.0001184154 25191.9964791208
   -0.8020408163     0.9307043332    53.3254302661    54.7047823749     0.0240742358     0.0001182953 25194.0732646742
   -0.8000000000     0.9272952180    53.1301023542    54.5103952733     0.0240906561     0.0001181758 25196.1421846221
   -0.7979591837     0.9239015290    52.9356582985    54.3168169829     0.0241057665     0.0001180568 25198.2032727775
   -0.7959183673     0.9205230201    52.7420839987    54.1240345349     0.0241195870     0.0001179383 25200.2565846003
   -0.7938775510     0.9171594514    52.5493657065    53.9318283033     0.0241285241     0.0001178092 25202.3019275480
   -0.7918367347     0.9138105888    52.3574900132    53.7403762774     0.0241359185     0.0001176797 25204.3391720994
   -0.7897959184     0.9104762040    52.1664438387    53.5496834727     0.0241420860     0.0001175508 25206.3683099184
   -0.7877551020     0.9071560743    51.9762144194    53.3597381873     0.0241470450     0.0001174223 25208.3894190740
   -0.7857142857     0.9038499823    51.7867892983    53.1705173508     0.0241506105     0.0001172938 25210.4024963183
   -0.7836734694     0.9005577156    51.5981563144    52.9819607973     0.0241519444     0.0001171625 25212.4075023505
   -0.7816326531     0.8972790671    51.4103035930    52.7940551696     0.0241510210     0.0001170283 25214.4044017292
   -0.7795918367     0.8940138344    51.2232195364    52.6068532677     0.0241489643     0.0001168947 25216.3931657977
   -0.7775510204     0.8907618196    51.0368928148    52.4203447243     0.0241457909     0.0001167615 25218.3738160616
   -0.7755102041     0.8875228296    50.8513123577    52.2345194133     0.0241415174     0.0001166289 25220.3463872690
   -0.7734693878     0.8842966755    50.6664673458    52.0493267491     0.0241354497     0.0001164946 25222.3108774541
   -0.7714285714     0.8810831728    50.4823472028    51.8647389265     0.0241272871     0.0001163576 25224.2672482427
   -0.7693877551     0.8778821410    50.2989415880    51.6807885070     0.0241177785     0.0001162202 25226.2154476277
   -0.7673469388     0.8746934035    50.1162403889    51.4974833681     0.0241072378     0.0001160834 25228.1555086193
   -0.7653061224     0.8715167878    49.9342337142    51.3148144843     0.0240956800     0.0001159470 25230.0874703989
   -0.7632653061     0.8683521249    49.7529118872    51.1327691740     0.0240830529     0.0001158108 25232.0113442575
   -0.7612244898     0.8651992496    49.5722654391    50.9512949862     0.0240686061     0.0001156726 25233.9271149062
   -0.7591836735     0.8620580001    49.3922851027    50.7704009251     0.0240526586     0.0001155333 25235.8347516280
   -0.7571428571     0.8589282182    49.2129618067    50.5901091736     0.0240357558     0.0001153945 25237.7342697814
   -0.7551020408     0.8558097488    49.0342866700    50.4104116438     0.0240179117     0.0001152561 25239.6257012900
   -0.7530612245     0.8527024401    48.8562509955    50.2313004168     0.0239991398     0.0001151181 25241.5090702716
   -0.7510204082     0.8496061434    48.6788462656    50.0527589056     0.0239792992     0.0001149802 25243.3843932396
   -0.7489795918     0.8465207132    48.5020641364    49.8747724840     0.0239582803     0.0001148418 25245.2516791936
   -0.7469387755     0.8434460067    48.3258964330    49.6973422330     0.0239362447     0.0001147035 25247.1109373876
   -0.7448979592     0.8403818842    48.1503351447    49.5204683210     0.0239133351     0.0001145656 25248.9621920766
   -0.7428571429     0.8373282086    47.9753724206    49.3441436108     0.0238895640     0.0001144282 25250.8054693300
   -0.7408163265     0.8342848456    47.8010005647    49.1683611081     0.0238649435     0.0001142912 25252.6407949579
   -0.7387755102     0.8312516635    47.6272120320    48.9931139573     0.0238394859     0.0001141546 25254.4681945141
   -0.7367346939     0.8282285332    47.4539994242    48.8183954380     0.0238132027     0.0001140184 25256.2876932984
   -0.7346938776     0.8252153280    47.2813554856    48.6441989609     0.0237861058     0.0001138827 25258.0993163597
   -0.7326530612     0.8222119238    47.1092730996    48.4705180638     0.0237582066     0.0001137473 25259.9030825657
   -0.7306122449     0.8192181987    46.9377452847    48.2973464094     0.0237295161     0.0001136123 25261.6990171024
   -0.7285714286     0.8162340331    46.7667651908    48.1246796507     0.0237000783     0.0001134779 25263.4871586867
   -0.7265306122     0.8132593097    46.5963260961    47.9525205025     0.0236700577     0.0001133444 25265.2675431988
   -0.7244897959     0.8102939134    46.4264214035    47.7808706274     0.0236395985     0.0001132122 25267.0402036290
   -0.7224489796     0.8073377312    46.2570446372    47.6097057058     0.0236083893     0.0001130804 25268.8051701620
   -0.7204081633     0.8043906520    46.0881894401    47.4390199375     0.0235764398     0.0001129490 25270.5624702587
   -0.7183673469     0.8014525670    45.9198495701    47.2688076831     0.0235437605     0.0001128180 25272.3121287340
   -0.7163265306     0.7985233692    45.7520188977    47.0990633990     0.0235103617     0.0001126873 25274.0541679299
   -0.7142857143     0.7956029535    45.5846914028    46.9298087684     0.0234767269     0.0001125584 25275.7886298408
   -0.7122448980     0.7926912167    45.4178611722    46.7610263281     0.0234426544     0.0001124307 25277.5155606459
   -0.7102040816     0.7897880574    45.2515223968    46.5926987983     0.0234079441     0.0001123035 25279.2349920082
   -0.7081632653     0.7868933760    45.0856693690    46.4248178077     0.0233725494     0.0001121766 25280.9469527345
   -0.7061224490     0.7840070746    44.9202964804    46.2573782762     0.0233364797     0.0001120501 25282.6514688543
   -0.7040816327     0.7811290570    44.7553982192    46.0903813088     0.0232998504     0.0001119242 25284.3485636953
   -0.7020408163     0.7782592286    44.5909691678    45.9238472949     0.0232631118     0.0001118003 25286.0382758774
   -0.7000000000     0.7753974966    44.4270040008    45.7577914210     0.0232266221     0.0001116795 25287.7206871407
   -0.6979591837     0.7725437695    44.2634974825    45.5921571707     0.0231894862     0.0001115590 25289.3958364250
   -0.6959183673     0.7696979575    44.1004444649    45.4269398805     0.0231517125     0.0001114388 25291.0637529978
   -0.6938775510     0.7668599722    43.9378398857    45.2621349005     0.0231133083     0.0001113190 25292.7244596685
   -0.6918367347     0.7640297268    43.7756787663    45.0977377892     0.0230742829     0.0001111994 25294.3779735925
