shape model output for Uranus's 1-bar isobaric surface. models are described in Mankovich et al. 2026, PSJ.
this model assumes the composite asymmetric wind profile described in Sromovsky et al. (2015, Icarus 258) Section 4.5 and Table 6.
these solutions vary the (north) polar radius to fit the pair of Voyager 2 occultations reported in Lindal et al. 1987 to a Gaussian standard deviation of 5 km.
mu=sin(phi), phi [radians], and lat_deg [degrees] refer to planetocentric latitude; lat_pg_deg gives planetographic latitude in degrees.
              mu          phi_rad          lat_deg       lat_pg_deg          psi_rad    omega_rad_s-1             r_km 
   -1.0000000000     1.5707963268    90.0000000000    90.0000000000     0.0000000000     0.0001211146 24970.6827850855
   -0.9998144712     1.5515331758    88.8963027451    88.9521461173     0.0009746507     0.0001211146 24970.9172218798
   -0.9996289425     1.5435536961    88.4391122386    88.5180708875     0.0013780884     0.0001211146 24971.1516249438
   -0.9994434137     1.5374305386    88.0882811581    88.1849660002     0.0016874688     0.0001211146 24971.3859941978
   -0.9992578850     1.5322682374    87.7925030866    87.9041227728     0.0019481310     0.0001211146 24971.6203296418
   -0.9990723562     1.5277199472    87.5319052508    87.6566748618     0.0021776405     0.0001211146 24971.8546312798
   -0.9988868275     1.5236077873    87.2962958471    87.4329467302     0.0023850078     0.0001211146 24972.0888991148
   -0.9987012987     1.5198260904    87.0796205724    87.2271908240     0.0025755868     0.0001211146 24972.3231331482
   -0.9985157699     1.5163060092    86.8779347757    87.0356623964     0.0027528663     0.0001211146 24972.5573333801
   -0.9983302412     1.5129997231    86.6884985354    86.8557604084     0.0029192704     0.0001211146 24972.7914998095
   -0.9981447124     1.5098724146    86.5093169626    86.6855911107     0.0030765643     0.0001211146 24973.0256324347
   -0.9979591837     1.5068978001    86.3388841007    86.5237249143     0.0032260808     0.0001211146 24973.2597312532
   -0.9959183673     1.4804147767    84.8215186329    85.0823462514     0.0045523007     0.0001211146 24975.8325859424
   -0.9938775510     1.4600831244    83.6566007642    83.9753415401     0.0055630760     0.0001211146 24978.4013434720
   -0.9918367347     1.4429339318    82.6740244067    83.0412586060     0.0064094459     0.0001211146 24980.9659984698
   -0.9897959184     1.4278174270    81.8079124837    82.2175803942     0.0071500539     0.0001211146 24983.5265434533
   -0.9877551020     1.4141440401    81.0244851196    81.4722541778     0.0078150444     0.0001211146 24986.0829708226
   -0.9857142857     1.4015635991    80.3036789465    80.7862448846     0.0084223645     0.0001211146 24988.6352747584
   -0.9836734694     1.3898479862    79.6324237728    80.1471537936     0.0089837336     0.0001211146 24991.1834498304
   -0.9816326531     1.3788387766    79.0016425268    79.5463712595     0.0095073099     0.0001211146 24993.7274905331
   -0.9795918367     1.3684206412    78.4047273409    78.9776304868     0.0099990462     0.0001211146 24996.2673911294
   -0.9775510204     1.3585065303    77.8366906282    78.4362019283     0.0104634461     0.0001211146 24998.8031456074
   -0.9755102041     1.3490288258    77.2936581616    77.9184122614     0.0109040161     0.0001211146 25001.3347476791
   -0.9734693878     1.3399337634    76.7725494708    77.4213411286     0.0113235506     0.0001211146 25003.8621907974
   -0.9714285714     1.3311777582    76.2708673246    76.9426213962     0.0117243203     0.0001211146 25006.3854681761
   -0.9693877551     1.3227248956    75.7865539757    76.4803027654     0.0121082006     0.0001211146 25008.9045741332
   -0.9673469388     1.3145451659    75.3178899826    76.0327557843     0.0124767619     0.0001211146 25011.4195036072
   -0.9653061224     1.3066131882    74.8634211408    75.5986025306     0.0128313359     0.0001211146 25013.9302492970
   -0.9632653061     1.2989072697    74.4219045316    75.1766654334     0.0131730628     0.0001211146 25016.4368044211
   -0.9612244898     1.2914086960    73.9922679079    74.7659287485     0.0135029290     0.0001211146 25018.9391625931
   -0.9591836735     1.2841011890    73.5735785965    74.3655090630     0.0138217941     0.0001211146 25021.4373176881
   -0.9571428571     1.2769704845    73.1650193268    73.9746323689     0.0141304133     0.0001211146 25023.9312637452
   -0.9551020408     1.2700040004    72.7658691871    73.5926160032     0.0144294540     0.0001211146 25026.4209948972
   -0.9530612245     1.2631905710    72.3754884407    73.2188542476     0.0147195101     0.0001211146 25028.9065053182
   -0.9510204082     1.2565202341    71.9933062850    72.8528067209     0.0150011125     0.0001211146 25031.3877891854
   -0.9489795918     1.2499840563    71.6188108859    72.4939889294     0.0152747384     0.0001211146 25033.8648406506
   -0.9469387755     1.2435739909    71.2515411916    72.1419645041     0.0155408185     0.0001211146 25036.3376538195
   -0.9448979592     1.2372827589    70.8910801509    71.7963387717     0.0157997435     0.0001211146 25038.8062227360
   -0.9428571429     1.2311037506    70.5370490537    71.4567533879     0.0160518688     0.0001211146 25041.2705413716
   -0.9408163265     1.2250309424    70.1891027733    71.1228818278     0.0162975190     0.0001211146 25043.7306036168
   -0.9387755102     1.2190588266    69.8469257429    70.7944255709     0.0165369917     0.0001211146 25046.1864032760
   -0.9367346939     1.2131823517    69.5102285299    70.4711108545     0.0167705603     0.0001211146 25048.6379340632
   -0.9346938776     1.2073968710    69.1787449051    70.1526858954     0.0169984770     0.0001211146 25051.0851895999
   -0.9326530612     1.2016980990    68.8522293213    69.8389184994     0.0172209749     0.0001211146 25053.5281634138
   -0.9306122449     1.1960820730    68.5304547326    69.5295939949     0.0174382698     0.0001211146 25055.9668407284
   -0.9285714286     1.1905451201    68.2132107017    69.2245134388     0.0176505625     0.0001211146 25058.4012040126
   -0.9265306122     1.1850838286    67.9003017483    68.9234920548     0.0178580397     0.0001211146 25060.8312740818
   -0.9244897959     1.1796950225    67.5915459031    68.6263578597     0.0180608758     0.0001211146 25063.2570622623
   -0.9224489796     1.1743757395    67.2867734365    68.3329504579     0.0182592336     0.0001211146 25065.6785685834
   -0.9204081633     1.1691232113    66.9858257369    68.0431199795     0.0184532657     0.0001211146 25068.0957831479
   -0.9183673469     1.1639348463    66.6885543185    67.7567261395     0.0186431153     0.0001211146 25070.5086873227
   -0.9163265306     1.1588082142    66.3948199388    67.4736374021     0.0188289168     0.0001211146 25072.9172547762
   -0.9142857143     1.1537410325    66.1044918138    67.1937302373     0.0190107968     0.0001211146 25075.3214523850
   -0.9122448980     1.1487311539    65.8174469161    66.9168454486     0.0191881242     0.0001211116 25077.7212410275
   -0.9102040816     1.1437765557    65.5335693460    66.6429008499     0.0193614872     0.0001211076 25080.1165762814
   -0.9081632653     1.1388753294    65.2527497676    66.3718085246     0.0195312598     0.0001211036 25082.5074245492
   -0.9061224490     1.1340256726    64.9748848997    66.1034803229     0.0196977061     0.0001211003 25084.8938472958
   -0.9040816327     1.1292258803    64.6998770572    65.8379217056     0.0198626261     0.0001211042 25087.2759204387
   -0.9020408163     1.1244743380    64.4276337361    65.5749392391     0.0200242586     0.0001211080 25089.6536889562
   -0.9000000000     1.1197695150    64.1580672368    65.3144501477     0.0201826892     0.0001211119 25092.0271697395
   -0.8979591837     1.1151099586    63.8910943224    65.0563539763     0.0203376176     0.0001211142 25094.3963542286
   -0.8959183673     1.1104942885    63.6266359071    64.8005427027     0.0204885387     0.0001211130 25096.7612107793
   -0.8938775510     1.1059211919    63.3646167727    64.5470001767     0.0206364834     0.0001211117 25099.1216867906
   -0.8918367347     1.1013894190    63.1049653087    64.2956588587     0.0207815228     0.0001211105 25101.4777106212
   -0.8897959184     1.0968977787    62.8476132749    64.0463949095     0.0209226865     0.0001211055 25103.8291933172
   -0.8877551020     1.0924451350    62.5924955840    63.7991181497     0.0210595366     0.0001210950 25106.1760301737
   -0.8857142857     1.0880304035    62.3395501007    63.5538518392     0.0211935634     0.0001210843 25108.5181294566
   -0.8836734694     1.0836525480    62.0887174586    63.3105457457     0.0213249265     0.0001210737 25110.8555093596
   -0.8816326531     1.0793105778    61.8399408902    63.0690941918     0.0214527721     0.0001210599 25113.1880268093
   -0.8795918367     1.0750035447    61.5931660703    62.8293827329     0.0215760510     0.0001210391 25115.5155581420
   -0.8775510204     1.0707305406    61.3483409720    62.5914734474     0.0216967547     0.0001210183 25117.8380309022
   -0.8755102041     1.0664906953    61.1054157324    62.3553231405     0.0218149996     0.0001209976 25120.1554199435
   -0.8734693878     1.0622831742    60.8643425293    62.1208539199     0.0219302609     0.0001209751 25122.4677021946
   -0.8714285714     1.0581071761    60.6250754655    61.8878965770     0.0220403863     0.0001209433 25124.7747005169
   -0.8693877551     1.0539619319    60.3875704629    61.6565520519     0.0221479069     0.0001209107 25127.0762867096
   -0.8673469388     1.0498467020    60.1517851626    61.4267964512     0.0222531450     0.0001208784 25129.3724042793
   -0.8653061224     1.0457607758    59.9176788330    61.1985796787     0.0223559371     0.0001208455 25131.6630593672
   -0.8632653061     1.0417034691    59.6852122830    60.9717320657     0.0224540061     0.0001208044 25133.9481231256
   -0.8612244898     1.0376741234    59.4543477825    60.7462942945     0.0225487204     0.0001207596 25136.2274174417
   -0.8591836735     1.0336721045    59.2250489867    60.5223003348     0.0226413073     0.0001207150 25138.5008920833
   -0.8571428571     1.0296968008    58.9972808661    60.2997173422     0.0227318048     0.0001206708 25140.7685342101
   -0.8551020408     1.0257476230    58.7710096411    60.0784186519     0.0228185919     0.0001206213 25143.0303285516
   -0.8530612245     1.0218240020    58.5462027200    59.8583001659     0.0229004205     0.0001205625 25145.2859734308
   -0.8510204082     1.0179253889    58.3228286418    59.6394855232     0.0229799977     0.0001205032 25147.5353542554
   -0.8489795918     1.0140512533    58.1008570218    59.4219612620     0.0230576188     0.0001204442 25149.7784688418
   -0.8469387755     1.0102010827    57.8802585008    59.2056810699     0.0231329878     0.0001203845 25152.0153419684
   -0.8448979592     1.0063743820    57.6610046973    58.9904825548     0.0232037659     0.0001203163 25154.2457872341
   -0.8428571429     1.0025706719    57.4430681625    58.7763926052     0.0232709015     0.0001202428 25156.4696319904
   -0.8408163265     0.9987894889    57.2264223382    58.5634883441     0.0233362041     0.0001201698 25158.6867927647
   -0.8387755102     0.9950303845    57.0110415164    58.3517458148     0.0233997043     0.0001200971 25160.8973275777
   -0.8367346939     0.9912929239    56.7969008020    58.1410866206     0.0234604683     0.0001200217 25163.1012104781
   -0.8346938776     0.9875766864    56.5839760772    57.9313853120     0.0235167275     0.0001199380 25165.2982113138
   -0.8326530612     0.9838812640    56.3722439680    57.7227188166     0.0235702326     0.0001198513 25167.4881836227
   -0.8306122449     0.9802062611    56.1616818123    57.5151254147     0.0236220471     0.0001197652 25169.6711150363
   -0.8285714286     0.9765512941    55.9522676300    57.3085846439     0.0236721976     0.0001196794 25171.8470813848
   -0.8265306122     0.9729159908    55.7439800947    57.1030100749     0.0237195478     0.0001195905 25174.0159978962
   -0.8244897959     0.9692999900    55.5367985066    56.8982522658     0.0237618507     0.0001194912 25176.1776216267
   -0.8224489796     0.9657029407    55.3307027670    56.6944654263     0.0238021486     0.0001193910 25178.3318317042
   -0.8204081633     0.9621245024    55.1256733545    56.4916554882     0.0238408858     0.0001192913 25180.4786263233
   -0.8183673469     0.9585643440    54.9216913014    56.2898048993     0.0238780868     0.0001191922 25182.6180864566
   -0.8163265306     0.9550221437    54.7187381727    56.0888490930     0.0239129467     0.0001190909 25184.7501003709
   -0.8142857143     0.9514975886    54.5167960447    55.8886180545     0.0239428108     0.0001189791 25186.8745256098
   -0.8122448980     0.9479903746    54.3158474857    55.6892967250     0.0239712113     0.0001188679 25188.9912877434
   -0.8102040816     0.9445002057    54.1158755372    55.4908694477     0.0239981709     0.0001187572 25191.1003780737
   -0.8081632653     0.9410267938    53.9168636960    55.2933209921     0.0240237118     0.0001186470 25193.2018148332
   -0.8061224490     0.9375698586    53.7187958976    55.0965757908     0.0240467955     0.0001185339 25195.2955667921
   -0.8040816327     0.9341291270    53.5216564995    54.9005674256     0.0240665358     0.0001184154 25197.3815915659
   -0.8020408163     0.9307043332    53.3254302661    54.7053583815     0.0240842891     0.0001182953 25199.4598417739
   -0.8000000000     0.9272952180    53.1301023542    54.5109714306     0.0241007119     0.0001181758 25201.5302652704
   -0.7979591837     0.9239015290    52.9356582985    54.3173932539     0.0241158244     0.0001180568 25203.5928053635
   -0.7959183673     0.9205230201    52.7420839987    54.1246108710     0.0241296459     0.0001179383 25205.6474010221
   -0.7938775510     0.9171594514    52.5493657065    53.9324045339     0.0241385812     0.0001178092 25207.6939870725
   -0.7918367347     0.9138105888    52.3574900132    53.7409523647     0.0241459731     0.0001176797 25209.7325025163
   -0.7897959184     0.9104762040    52.1664438387    53.5502593936     0.0241521377     0.0001175508 25211.7629706698
   -0.7877551020     0.9071560743    51.9762144194    53.3603139098     0.0241570933     0.0001174223 25213.7853785150
   -0.7857142857     0.9038499823    51.7867892983    53.1710928332     0.0241606545     0.0001172938 25215.7997015689
   -0.7836734694     0.9005577156    51.5981563144    52.9825359686     0.0241619831     0.0001171625 25217.8059237944
   -0.7816326531     0.8972790671    51.4103035930    52.7946299607     0.0241610530     0.0001170283 25219.8040372484
   -0.7795918367     0.8940138344    51.2232195364    52.6074276545     0.0241589892     0.0001168947 25221.7940417468
   -0.7775510204     0.8907618196    51.0368928148    52.4209186816     0.0241558083     0.0001167615 25223.7759445459
   -0.7755102041     0.8875228296    50.8513123577    52.2350929142     0.0241515268     0.0001166289 25225.7497600382
   -0.7734693878     0.8842966755    50.6664673458    52.0498997401     0.0241454503     0.0001164946 25227.7154843405
   -0.7714285714     0.8810831728    50.4823472028    51.8653113417     0.0241372777     0.0001163576 25229.6730702757
   -0.7693877551     0.8778821410    50.2989415880    51.6813603126     0.0241277584     0.0001162202 25231.6225066649
   -0.7673469388     0.8746934035    50.1162403889    51.4980545392     0.0241172066     0.0001160834 25233.5637973033
   -0.7653061224     0.8715167878    49.9342337142    51.3153849939     0.0241056373     0.0001159470 25235.4969595964
   -0.7632653061     0.8683521249    49.7529118872    51.1333389950     0.0240929981     0.0001158108 25237.4220240412
   -0.7612244898     0.8651992496    49.5722654391    50.9518640641     0.0240785384     0.0001156726 25239.3389865395
   -0.7591836735     0.8620580001    49.3922851027    50.7709692177     0.0240625772     0.0001155333 25241.2478184202
   -0.7571428571     0.8589282182    49.2129618067    50.5906766587     0.0240456603     0.0001153945 25243.1485335528
   -0.7551020408     0.8558097488    49.0342866700    50.4109782982     0.0240278017     0.0001152561 25245.0411499528
   -0.7530612245     0.8527024401    48.8562509955    50.2318662175     0.0240090149     0.0001151181 25246.9256895889
   -0.7510204082     0.8496061434    48.6788462656    50.0533238250     0.0239891589     0.0001149802 25248.8021782372
   -0.7489795918     0.8465207132    48.5020641364    49.8753364907     0.0239681241     0.0001148418 25250.6706289476
   -0.7469387755     0.8434460067    48.3258964330    49.6979053014     0.0239460721     0.0001147035 25252.5310494383
   -0.7448979592     0.8403818842    48.1503351447    49.5210304305     0.0239231458     0.0001145656 25254.3834627593
   -0.7428571429     0.8373282086    47.9753724206    49.3447047411     0.0238993575     0.0001144282 25256.2278930008
   -0.7408163265     0.8342848456    47.8010005647    49.1689212390     0.0238747197     0.0001142912 25258.0643652462
   -0.7387755102     0.8312516635    47.6272120320    48.9936730691     0.0238492442     0.0001141546 25259.8929055335
   -0.7367346939     0.8282285332    47.4539994242    48.8189535108     0.0238229430     0.0001140184 25261.7135361997
   -0.7346938776     0.8252153280    47.2813554856    48.6447559752     0.0237958276     0.0001138827 25263.5262815571
   -0.7326530612     0.8222119238    47.1092730996    48.4710740017     0.0237679095     0.0001137473 25265.3311729000
   -0.7306122449     0.8192181987    46.9377452847    48.2979012538     0.0237392000     0.0001136123 25267.1282409553
   -0.7285714286     0.8162340331    46.7667651908    48.1252333851     0.0237097428     0.0001134779 25268.9175158751
   -0.7265306122     0.8132593097    46.5963260961    47.9530731159     0.0236797026     0.0001133444 25270.6990272487
   -0.7244897959     0.8102939134    46.4264214035    47.7814221140     0.0236492238     0.0001132122 25272.4728041152
   -0.7224489796     0.8073377312    46.2570446372    47.6102560473     0.0236179946     0.0001130804 25274.2388749758
   -0.7204081633     0.8043906520    46.0881894401    47.4395691162     0.0235860248     0.0001129490 25275.9972678049
   -0.7183673469     0.8014525670    45.9198495701    47.2693556818     0.0235533249     0.0001128180 25277.7480100622
   -0.7163265306     0.7985233692    45.7520188977    47.0996102011     0.0235199052     0.0001126873 25279.4911287028
   -0.7142857143     0.7956029535    45.5846914028    46.9303543764     0.0234862495     0.0001125584 25281.2266731503
   -0.7122448980     0.7926912167    45.4178611722    46.7615707372     0.0234521561     0.0001124307 25282.9546942620
   -0.7102040816     0.7897880574    45.2515223968    46.5932419936     0.0234174246     0.0001123035 25284.6751980264
   -0.7081632653     0.7868933760    45.0856693690    46.4253597710     0.0233820085     0.0001121766 25286.3882025450
   -0.7061224490     0.7840070746    44.9202964804    46.2579189903     0.0233459169     0.0001120501 25288.0937386776
   -0.7040816327     0.7811290570    44.7553982192    46.0909207626     0.0233092656     0.0001119242 25289.7918496716
   -0.7020408163     0.7782592286    44.5909691678    45.9243854963     0.0232725052     0.0001118003 25291.4825908056
   -0.7000000000     0.7753974966    44.4270040008    45.7583283898     0.0232359940     0.0001116795 25293.1660290444
   -0.6979591837     0.7725437695    44.2634974825    45.5926928945     0.0231988363     0.0001115590 25294.8422234769
   -0.6959183673     0.7696979575    44.1004444649    45.4274743448     0.0231610407     0.0001114388 25296.5111801127
   -0.6938775510     0.7668599722    43.9378398857    45.2626680898     0.0231226142     0.0001113190 25298.1729104505
   -0.6918367347     0.7640297268    43.7756787663    45.0982696896     0.0230835663     0.0001111994 25299.8274425134
