shape model output for Uranus's 1-bar isobaric surface. models are described in Mankovich et al. 2026, PSJ.
this model assumes the composite asymmetric wind profile described in Sromovsky et al. (2015, Icarus 258) Section 4.5 and Table 6.
these solutions vary the (north) polar radius to fit the pair of Voyager 2 occultations reported in Lindal et al. 1987 to a Gaussian standard deviation of 5 km.
mu=sin(phi), phi [radians], and lat_deg [degrees] refer to planetocentric latitude; lat_pg_deg gives planetographic latitude in degrees.
              mu          phi_rad          lat_deg       lat_pg_deg          psi_rad    omega_rad_s-1             r_km 
   -1.0000000000     1.5707963268    90.0000000000    90.0000000000     0.0000000000     0.0001211146 24969.1701612766
   -0.9998144712     1.5515331758    88.8963027451    88.9521395843     0.0009745367     0.0001211146 24969.4045564456
   -0.9996289425     1.5435536961    88.4391122386    88.5180616498     0.0013779272     0.0001211146 24969.6389178888
   -0.9994434137     1.5374305386    88.0882811581    88.1849546882     0.0016872714     0.0001211146 24969.8732455263
   -0.9992578850     1.5322682374    87.7925030866    87.9041097127     0.0019479031     0.0001211146 24970.1075393581
   -0.9990723562     1.5277199472    87.5319052508    87.6566602624     0.0021773857     0.0001211146 24970.3417993883
   -0.9988868275     1.5236077873    87.2962958471    87.4329307398     0.0023847288     0.0001211146 24970.5760256198
   -0.9987012987     1.5198260904    87.0796205724    87.2271735549     0.0025752854     0.0001211146 24970.8102180541
   -0.9985157699     1.5163060092    86.8779347757    87.0356439377     0.0027525441     0.0001211146 24971.0443766912
   -0.9983302412     1.5129997231    86.6884985354    86.8557408329     0.0029189287     0.0001211146 24971.2785015302
   -0.9981447124     1.5098724146    86.5093169626    86.6855704795     0.0030762042     0.0001211146 24971.5125925693
   -0.9979591837     1.5068978001    86.3388841007    86.5237032794     0.0032257032     0.0001211146 24971.7466498061
   -0.9959183673     1.4804147767    84.8215186329    85.0823157056     0.0045517676     0.0001211146 24974.3190473843
   -0.9938775510     1.4600831244    83.6566007642    83.9753041915     0.0055624241     0.0001211146 24976.8873483322
   -0.9918367347     1.4429339318    82.6740244067    83.0412155514     0.0064086945     0.0001211146 24979.4515472796
   -0.9897959184     1.4278174270    81.8079124837    82.2175323384     0.0071492151     0.0001211146 24982.0116367456
   -0.9877551020     1.4141440401    81.0244851196    81.4722016236     0.0078141271     0.0001211146 24984.5676091316
   -0.9857142857     1.4015635991    80.3036789465    80.7861882153     0.0084213754     0.0001211146 24987.1194586205
   -0.9836734694     1.3898479862    79.6324237728    80.1470933140     0.0089826781     0.0001211146 24989.6671797839
   -0.9816326531     1.3788387766    79.0016425268    79.5463072201     0.0095061922     0.0001211146 24992.2107671183
   -0.9795918367     1.3684206412    78.4047273409    78.9775630983     0.0099978700     0.0001211146 24994.7502148887
   -0.9775510204     1.3585065303    77.8366906282    78.4361313714     0.0104622146     0.0001211146 24997.2855170851
   -0.9755102041     1.3490288258    77.2936581616    77.9183386935     0.0109027321     0.0001211146 24999.8166674215
   -0.9734693878     1.3399337634    76.7725494708    77.4212646885     0.0113222165     0.0001211146 25002.3436593526
   -0.9714285714     1.3311777582    76.2708673246    76.9425422076     0.0117229382     0.0001211146 25004.8664860941
   -0.9693877551     1.3227248956    75.7865539757    76.4802209396     0.0121067724     0.0001211146 25007.3851419649
   -0.9673469388     1.3145451659    75.3178899826    76.0326714220     0.0124752895     0.0001211146 25009.8996219067
   -0.9653061224     1.3066131882    74.8634211408    75.5985157237     0.0128298208     0.0001211146 25012.4099186202
   -0.9632653061     1.2989072697    74.4219045316    75.1765762663     0.0131715065     0.0001211146 25014.9160253254
   -0.9612244898     1.2914086960    73.9922679079    74.7658372992     0.0135013329     0.0001211146 25017.4179356376
   -0.9591836735     1.2841011890    73.5735785965    74.3654154036     0.0138201594     0.0001211146 25019.9156434338
   -0.9571428571     1.2769704845    73.1650193268    73.9745365665     0.0141287412     0.0001211146 25022.4091427549
   -0.9551020408     1.2700040004    72.7658691871    73.5925181206     0.0144277456     0.0001211146 25024.8984277356
   -0.9530612245     1.2631905710    72.3754884407    73.2187543436     0.0147177665     0.0001211146 25027.3834925520
   -0.9510204082     1.2565202341    71.9933062850    72.8527048508     0.0149993346     0.0001211146 25029.8643313831
   -0.9489795918     1.2499840563    71.6188108859    72.4938851454     0.0152729270     0.0001211146 25032.3409383827
   -0.9469387755     1.2435739909    71.2515411916    72.1418588556     0.0155389746     0.0001211146 25034.8133076584
   -0.9448979592     1.2372827589    70.8910801509    71.7962313054     0.0157978679     0.0001211146 25037.2814332563
   -0.9428571429     1.2311037506    70.5370490537    71.4566441483     0.0160499622     0.0001211146 25039.7453091497
   -0.9408163265     1.2250309424    70.1891027733    71.1227708571     0.0162955822     0.0001211146 25042.2049292312
   -0.9387755102     1.2190588266    69.8469257429    70.7943129095     0.0165350253     0.0001211146 25044.6602873071
   -0.9367346939     1.2131823517    69.5102285299    70.4709965410     0.0167685651     0.0001211146 25047.1113770933
   -0.9346938776     1.2073968710    69.1787449051    70.1525699666     0.0169964537     0.0001211146 25049.5581922133
   -0.9326530612     1.2016980990    68.8522293213    69.8388009907     0.0172189239     0.0001211146 25052.0007261968
   -0.9306122449     1.1960820730    68.5304547326    69.5294749409     0.0174361919     0.0001211146 25054.4389727584
   -0.9285714286     1.1905451201    68.2132107017    69.2243928739     0.0176484582     0.0001211146 25056.8729264979
   -0.9265306122     1.1850838286    67.9003017483    68.9233700099     0.0178559096     0.0001211146 25059.3025814368
   -0.9244897959     1.1796950225    67.5915459031    68.6262343632     0.0180587204     0.0001211146 25061.7279315492
   -0.9224489796     1.1743757395    67.2867734365    68.3328255367     0.0182570533     0.0001211146 25064.1489708179
   -0.9204081633     1.1691232113    66.9858257369    68.0429936596     0.0184510610     0.0001211146 25066.5656932214
   -0.9183673469     1.1639348463    66.6885543185    67.7565984476     0.0186408866     0.0001211146 25068.9781003352
   -0.9163265306     1.1588082142    66.3948199388    67.4735083655     0.0188266646     0.0001211146 25071.3861824267
   -0.9142857143     1.1537410325    66.1044918138    67.1935998818     0.0190085217     0.0001211146 25073.7898986630
   -0.9122448980     1.1487311539    65.8174469161    66.9167138075     0.0191858266     0.0001211116 25076.1892126889
   -0.9102040816     1.1437765557    65.5335693460    66.6427679517     0.0193591677     0.0001211076 25078.5840930707
   -0.9081632653     1.1388753294    65.2527497676    66.3716743951     0.0195289188     0.0001211036 25080.9745128028
   -0.9061224490     1.1340256726    64.9748848997    66.1033449792     0.0196953439     0.0001211003 25083.3604625296
   -0.9040816327     1.1292258803    64.6998770572    65.8377851503     0.0198602428     0.0001211042 25085.7420649719
   -0.9020408163     1.1244743380    64.4276337361    65.5748014971     0.0200218545     0.0001211080 25088.1194033840
   -0.9000000000     1.1197695150    64.1580672368    65.3143112432     0.0201802649     0.0001211119 25090.4924904102
   -0.8979591837     1.1151099586    63.8910943224    65.0562139342     0.0203351734     0.0001211142 25092.8612864609
   -0.8959183673     1.1104942885    63.6266359071    64.8004015485     0.0204860751     0.0001211130 25095.2257031684
   -0.8938775510     1.1059211919    63.3646167727    64.5468579245     0.0206340007     0.0001211117 25097.5856828672
   -0.8918367347     1.1013894190    63.1049653087    64.2955155326     0.0207790213     0.0001211105 25099.9412657426
   -0.8897959184     1.0968977787    62.8476132749    64.0462505438     0.0209201669     0.0001211055 25102.2923577283
   -0.8877551020     1.0924451350    62.5924955840    63.7989727748     0.0210569993     0.0001210950 25104.6387590842
   -0.8857142857     1.0880304035    62.3395501007    63.5537054728     0.0211910089     0.0001210843 25106.9804094214
   -0.8836734694     1.0836525480    62.0887174586    63.3103984021     0.0213223549     0.0001210737 25109.3173067622
   -0.8816326531     1.0793105778    61.8399408902    63.0689459052     0.0214501840     0.0001210599 25111.6494196155
   -0.8795918367     1.0750035447    61.5931660703    62.8292335417     0.0215734472     0.0001210391 25113.9765469697
   -0.8775510204     1.0707305406    61.3483409720    62.5913233679     0.0216941354     0.0001210183 25116.2986047074
   -0.8755102041     1.0664906953    61.1054157324    62.3551721888     0.0218123650     0.0001209976 25118.6155755296
   -0.8734693878     1.0622831742    60.8643425293    62.1207021206     0.0219276115     0.0001209751 25120.9274665738
   -0.8714285714     1.0581071761    60.6250754655    61.8877439763     0.0220377229     0.0001209433 25123.2340824048
   -0.8693877551     1.0539619319    60.3875704629    61.6563986638     0.0221452297     0.0001209107 25125.5352400137
   -0.8673469388     1.0498467020    60.1517851626    61.4266422910     0.0222504544     0.0001208784 25127.8309290896
   -0.8653061224     1.0457607758    59.9176788330    61.1984247689     0.0223532335     0.0001208455 25130.1212103383
   -0.8632653061     1.0417034691    59.6852122830    60.9715764451     0.0224512900     0.0001208044 25132.4058694342
   -0.8612244898     1.0376741234    59.4543477825    60.7461379884     0.0225459923     0.0001207596 25134.6847407771
   -0.8591836735     1.0336721045    59.2250489867    60.5221433580     0.0226385675     0.0001207150 25136.9577969978
   -0.8571428571     1.0296968008    58.9972808661    60.2995597141     0.0227290537     0.0001206708 25139.2250732711
   -0.8551020408     1.0257476230    58.7710096411    60.0782603924     0.0228158298     0.0001206213 25141.4863870128
   -0.8530612245     1.0218240020    58.5462027200    59.8581413227     0.0228976482     0.0001205625 25143.7415769141
   -0.8510204082     1.0179253889    58.3228286418    59.6393261169     0.0229772155     0.0001205032 25145.9905439796
   -0.8489795918     1.0140512533    58.1008570218    59.4218013091     0.0230548270     0.0001204442 25148.2332767421
   -0.8469387755     1.0102010827    57.8802585008    59.2055205865     0.0231301868     0.0001203845 25150.4697634242
   -0.8448979592     1.0063743820    57.6610046973    58.9903215796     0.0232009564     0.0001203163 25152.6997923595
   -0.8428571429     1.0025706719    57.4430681625    58.7762311700     0.0232680839     0.0001202428 25154.9232195771
   -0.8408163265     0.9987894889    57.2264223382    58.5633264635     0.0233333788     0.0001201698 25157.1399834312
   -0.8387755102     0.9950303845    57.0110415164    58.3515835003     0.0233968714     0.0001200971 25159.3501126900
   -0.8367346939     0.9912929239    56.7969008020    58.1409238938     0.0234576282     0.0001200217 25161.5535823482
   -0.8346938776     0.9875766864    56.5839760772    57.9312222153     0.0235138809     0.0001199380 25163.7501773264
   -0.8326530612     0.9838812640    56.3722439680    57.7225553747     0.0235673800     0.0001198513 25165.9397607204
   -0.8306122449     0.9802062611    56.1616818123    57.5149616377     0.0236191887     0.0001197652 25168.1222877688
   -0.8285714286     0.9765512941    55.9522676300    57.3084205387     0.0236693334     0.0001196794 25170.2978074657
   -0.8265306122     0.9729159908    55.7439800947    57.1028456704     0.0237166784     0.0001195905 25172.4663258662
   -0.8244897959     0.9692999900    55.5367985066    56.8980876128     0.0237589770     0.0001194912 25174.6275768778
   -0.8224489796     0.9657029407    55.3307027670    56.6943005391     0.0237992708     0.0001193910 25176.7814040280
   -0.8204081633     0.9621245024    55.1256733545    56.4914903766     0.0238380040     0.0001192913 25178.9278054531
   -0.8183673469     0.9585643440    54.9216913014    56.2896395733     0.0238752013     0.0001191922 25181.0668674768
   -0.8163265306     0.9550221437    54.7187381727    56.0886835722     0.0239100578     0.0001190909 25183.1984850400
   -0.8142857143     0.9514975886    54.5167960447    55.8884523883     0.0239399194     0.0001189791 25185.3225256498
   -0.8122448980     0.9479903746    54.3158474857    55.6891309241     0.0239683176     0.0001188679 25187.4389078148
   -0.8102040816     0.9445002057    54.1158755372    55.4907035206     0.0239952750     0.0001187572 25189.5476059788
   -0.8081632653     0.9410267938    53.9168636960    55.2931549495     0.0240208138     0.0001186470 25191.6486589999
   -0.8061224490     0.9375698586    53.7187958976    55.0964096562     0.0240438959     0.0001185339 25193.7420489756
   -0.8040816327     0.9341291270    53.5216564995    54.9004012248     0.0240636350     0.0001184154 25195.8276655262
   -0.8020408163     0.9307043332    53.3254302661    54.7051921183     0.0240813872     0.0001182953 25197.9053911985
   -0.8000000000     0.9272952180    53.1301023542    54.5108051092     0.0240978091     0.0001181758 25199.9752444193
   -0.7979591837     0.9239015290    52.9356582985    54.3172268872     0.0241129207     0.0001180568 25202.0372485315
   -0.7959183673     0.9205230201    52.7420839987    54.1244444802     0.0241267419     0.0001179383 25204.0914243779
   -0.7938775510     0.9171594514    52.5493657065    53.9322381737     0.0241356777     0.0001178092 25206.1376538809
   -0.7918367347     0.9138105888    52.3574900132    53.7407860446     0.0241430703     0.0001176797 25208.1757911316
   -0.7897959184     0.9104762040    52.1664438387    53.5500931191     0.0241492356     0.0001175508 25210.2058531167
   -0.7877551020     0.9071560743    51.9762144194    53.3601476899     0.0241541922     0.0001174223 25212.2278607672
   -0.7857142857     0.9038499823    51.7867892983    53.1709266840     0.0241577547     0.0001172938 25214.2418377575
   -0.7836734694     0.9005577156    51.5981563144    52.9823699133     0.0241590849     0.0001171625 25216.2477479853
   -0.7816326531     0.8972790671    51.4103035930    52.7944640183     0.0241581568     0.0001170283 25218.2455413718
   -0.7795918367     0.8940138344    51.2232195364    52.6072618309     0.0241560950     0.0001168947 25220.2352074142
   -0.7775510204     0.8907618196    51.0368928148    52.4207529824     0.0241529163     0.0001167615 25222.2167535916
   -0.7755102041     0.8875228296    50.8513123577    52.2349273462     0.0241486371     0.0001166289 25224.1902046397
   -0.7734693878     0.8842966755    50.6664673458    52.0497343201     0.0241425631     0.0001164946 25226.1555808492
   -0.7714285714     0.8810831728    50.4823472028    51.8651460879     0.0241343934     0.0001163576 25228.1128159219
   -0.7693877551     0.8778821410    50.2989415880    51.6811952348     0.0241248772     0.0001162202 25230.0618955824
   -0.7673469388     0.8746934035    50.1162403889    51.4978896442     0.0241143286     0.0001160834 25232.0028289879
   -0.7653061224     0.8715167878    49.9342337142    51.3152202893     0.0241027627     0.0001159470 25233.9356400514
   -0.7632653061     0.8683521249    49.7529118872    51.1331744895     0.0240901270     0.0001158108 25235.8603636129
   -0.7612244898     0.8651992496    49.5722654391    50.9516997740     0.0240756710     0.0001156726 25237.7769910356
   -0.7591836735     0.8620580001    49.3922851027    50.7708051558     0.0240597137     0.0001155333 25239.6854928236
   -0.7571428571     0.8589282182    49.2129618067    50.5905128302     0.0240428010     0.0001153945 25241.5858658155
   -0.7551020408     0.8558097488    49.0342866700    50.4108147087     0.0240249465     0.0001152561 25243.4781331649
   -0.7530612245     0.8527024401    48.8562509955    50.2317028747     0.0240061640     0.0001151181 25245.3623371219
   -0.7510204082     0.8496061434    48.6788462656    50.0531607371     0.0239863125     0.0001149802 25247.2384941497
   -0.7489795918     0.8465207132    48.5020641364    49.8751736663     0.0239652823     0.0001148418 25249.1066099542
   -0.7469387755     0.8434460067    48.3258964330    49.6977427481     0.0239432350     0.0001147035 25250.9666972371
   -0.7448979592     0.8403818842    48.1503351447    49.5208681539     0.0239203135     0.0001145656 25252.8187755216
   -0.7428571429     0.8373282086    47.9753724206    49.3445427469     0.0238965302     0.0001144282 25254.6628709142
   -0.7408163265     0.8342848456    47.8010005647    49.1687595334     0.0238718974     0.0001142912 25256.4990133749
   -0.7387755102     0.8312516635    47.6272120320    48.9935116578     0.0238464270     0.0001141546 25258.3272263429
   -0.7367346939     0.8282285332    47.4539994242    48.8187923997     0.0238201310     0.0001140184 25260.1475323693
   -0.7346938776     0.8252153280    47.2813554856    48.6445951698     0.0237930210     0.0001138827 25261.9599558423
   -0.7326530612     0.8222119238    47.1092730996    48.4709135070     0.0237651083     0.0001137473 25263.7645229217
   -0.7306122449     0.8192181987    46.9377452847    48.2977410746     0.0237364043     0.0001136123 25265.5612614758
   -0.7285714286     0.8162340331    46.7667651908    48.1250735254     0.0237069527     0.0001134779 25267.3502010217
   -0.7265306122     0.8132593097    46.5963260961    47.9529135783     0.0236769182     0.0001133444 25269.1313726680
   -0.7244897959     0.8102939134    46.4264214035    47.7812629001     0.0236464450     0.0001132122 25270.9048123013
   -0.7224489796     0.8073377312    46.2570446372    47.6100971633     0.0236152215     0.0001130804 25272.6705580209
   -0.7204081633     0.8043906520    46.0881894401    47.4394105678     0.0235832576     0.0001129490 25274.4286353490
   -0.7183673469     0.8014525670    45.9198495701    47.2691974747     0.0235505637     0.0001128180 25276.1790713916
   -0.7163265306     0.7985233692    45.7520188977    47.0994523411     0.0235171500     0.0001126873 25277.9218955520
   -0.7142857143     0.7956029535    45.5846914028    46.9301968623     0.0234835004     0.0001125584 25279.6571394571
   -0.7122448980     0.7926912167    45.4178611722    46.7614135683     0.0234494130     0.0001124307 25281.3848368870
   -0.7102040816     0.7897880574    45.2515223968    46.5930851743     0.0234146876     0.0001123035 25283.1050237068
   -0.7081632653     0.7868933760    45.0856693690    46.4252033084     0.0233792777     0.0001121766 25284.8177375009
   -0.7061224490     0.7840070746    44.9202964804    46.2577628884     0.0233431925     0.0001120501 25286.5229811541
   -0.7040816327     0.7811290570    44.7553982192    46.0907650242     0.0233065475     0.0001119242 25288.2207948804
   -0.7020408163     0.7782592286    44.5909691678    45.9242301201     0.0232697934     0.0001118003 25289.9112459635
   -0.7000000000     0.7753974966    44.4270040008    45.7581733695     0.0232332884     0.0001116795 25291.5943898598
   -0.6979591837     0.7725437695    44.2634974825    45.5925382325     0.0231961370     0.0001115590 25293.2702705242
   -0.6959183673     0.7696979575    44.1004444649    45.4273200457     0.0231583476     0.0001114388 25294.9389207255
   -0.6938775510     0.7668599722    43.9378398857    45.2625141594     0.0231199276     0.0001113190 25296.6003623499
   -0.6918367347     0.7640297268    43.7756787663    45.0981161319     0.0230808862     0.0001111994 25298.2546067719
