shape model output for Uranus's 1-bar isobaric surface. models are described in Mankovich et al. 2026, PSJ.
this model assumes the composite asymmetric wind profile described in Sromovsky et al. (2015, Icarus 258) Section 4.5 and Table 6.
these solutions vary the (north) polar radius to fit the pair of Voyager 2 occultations reported in Lindal et al. 1987 to a Gaussian standard deviation of 5 km.
mu=sin(phi), phi [radians], and lat_deg [degrees] refer to planetocentric latitude; lat_pg_deg gives planetographic latitude in degrees.
              mu          phi_rad          lat_deg       lat_pg_deg          psi_rad    omega_rad_s-1             r_km 
   -1.0000000000     1.5707963268    90.0000000000    90.0000000000     0.0000000000     0.0001211146 24963.3292338837
   -0.9998144712     1.5515331758    88.8963027451    88.9521143688     0.0009740966     0.0001211146 24963.5634683976
   -0.9996289425     1.5435536961    88.4391122386    88.5180259950     0.0013773049     0.0001211146 24963.7976692024
   -0.9994434137     1.5374305386    88.0882811581    88.1849110267     0.0016865094     0.0001211146 24964.0318362183
   -0.9992578850     1.5322682374    87.7925030866    87.9040593044     0.0019470233     0.0001211146 24964.2659694453
   -0.9990723562     1.5277199472    87.5319052508    87.6566039127     0.0021764022     0.0001211146 24964.5000688873
   -0.9988868275     1.5236077873    87.2962958471    87.4328690210     0.0023836516     0.0001211146 24964.7341345475
   -0.9987012987     1.5198260904    87.0796205724    87.2271069010     0.0025741220     0.0001211146 24964.9681664272
   -0.9985157699     1.5163060092    86.8779347757    87.0355726924     0.0027513007     0.0001211146 24965.2021645265
   -0.9983302412     1.5129997231    86.6884985354    86.8556652772     0.0029176100     0.0001211146 24965.4361288445
   -0.9981447124     1.5098724146    86.5093169626    86.6854908487     0.0030748144     0.0001211146 24965.6700593795
   -0.9979591837     1.5068978001    86.3388841007    86.5236197745     0.0032242458     0.0001211146 24965.9039561289
   -0.9959183673     1.4804147767    84.8215186329    85.0821978075     0.0045497099     0.0001211146 24968.4745894582
   -0.9938775510     1.4600831244    83.6566007642    83.9751600364     0.0055599082     0.0001211146 24971.0411282001
   -0.9918367347     1.4429339318    82.6740244067    83.0410493730     0.0064057941     0.0001211146 24973.6035669931
   -0.9897959184     1.4278174270    81.8079124837    82.2173468562     0.0071459779     0.0001211146 24976.1618983621
   -0.9877551020     1.4141440401    81.0244851196    81.4719987794     0.0078105868     0.0001211146 24978.7161147141
   -0.9857142857     1.4015635991    80.3036789465    80.7859694878     0.0084175579     0.0001211146 24981.2662102393
   -0.9836734694     1.3898479862    79.6324237728    80.1468598799     0.0089786039     0.0001211146 24983.8121795174
   -0.9816326531     1.3788387766    79.0016425268    79.5460600462     0.0095018782     0.0001211146 24986.3540170526
   -0.9795918367     1.3684206412    78.4047273409    78.9773029980     0.0099933304     0.0001211146 24988.8917171179
   -0.9775510204     1.3585065303    77.8366906282    78.4358590423     0.0104574616     0.0001211146 24991.4252737106
   -0.9755102041     1.3490288258    77.2936581616    77.9180547430     0.0108977762     0.0001211146 24993.9546805525
   -0.9734693878     1.3399337634    76.7725494708    77.4209696524     0.0113170671     0.0001211146 24996.4799311051
   -0.9714285714     1.3311777582    76.2708673246    76.9422365631     0.0117176037     0.0001211146 24999.0010185915
   -0.9693877551     1.3227248956    75.7865539757    76.4799051160     0.0121012603     0.0001211146 25001.5179373339
   -0.9673469388     1.3145451659    75.3178899826    76.0323458084     0.0124696065     0.0001211146 25004.0306822868
   -0.9653061224     1.3066131882    74.8634211408    75.5981806751     0.0128239731     0.0001211146 25006.5392461574
   -0.9632653061     1.2989072697    74.4219045316    75.1762321083     0.0131654999     0.0001211146 25009.0436221718
   -0.9612244898     1.2914086960    73.9922679079    74.7654843323     0.0134951724     0.0001211146 25011.5438039521
   -0.9591836735     1.2841011890    73.5735785965    74.3650539063     0.0138138501     0.0001211146 25014.0397853819
   -0.9571428571     1.2769704845    73.1650193268    73.9741667982     0.0141222875     0.0001211146 25016.5315605095
   -0.9551020408     1.2700040004    72.7658691871    73.5921403234     0.0144211518     0.0001211146 25019.0191234767
   -0.9530612245     1.2631905710    72.3754884407    73.2183687446     0.0147110365     0.0001211146 25021.5024684672
   -0.9510204082     1.2565202341    71.9933062850    72.8523116636     0.0149924721     0.0001211146 25023.9815896674
   -0.9489795918     1.2499840563    71.6188108859    72.4934845713     0.0152659357     0.0001211146 25026.4564812388
   -0.9469387755     1.2435739909    71.2515411916    72.1414510851     0.0155318577     0.0001211146 25028.9271372965
   -0.9448979592     1.2372827589    70.8910801509    71.7958165190     0.0157906285     0.0001211146 25031.3935518942
   -0.9428571429     1.2311037506    70.5370490537    71.4562225175     0.0160426033     0.0001211146 25033.8557190129
   -0.9408163265     1.2250309424    70.1891027733    71.1223425452     0.0162881067     0.0001211146 25036.3136325527
   -0.9387755102     1.2190588266    69.8469257429    70.7938780722     0.0165274360     0.0001211146 25038.7672863276
   -0.9367346939     1.2131823517    69.5102285299    70.4705553270     0.0167608645     0.0001211146 25041.2166740611
   -0.9346938776     1.2073968710    69.1787449051    70.1521225184     0.0169886442     0.0001211146 25043.6617893843
   -0.9326530612     1.2016980990    68.8522293213    69.8383474448     0.0172110081     0.0001211146 25046.1026258344
   -0.9306122449     1.1960820730    68.5304547326    69.5290154284     0.0174281719     0.0001211146 25048.5391771394
   -0.9285714286     1.1905451201    68.2132107017    69.2239275207     0.0176403363     0.0001211146 25050.9714379165
   -0.9265306122     1.1850838286    67.9003017483    68.9228989374     0.0178476879     0.0001211146 25053.3994021631
   -0.9244897959     1.1796950225    67.5915459031    68.6257576883     0.0180504008     0.0001211146 25055.8230638459
   -0.9224489796     1.1743757395    67.2867734365    68.3323433721     0.0182486379     0.0001211146 25058.2424169605
   -0.9204081633     1.1691232113    66.9858257369    68.0425061144     0.0184425517     0.0001211146 25060.6574555160
   -0.9183673469     1.1639348463    66.6885543185    67.7561056265     0.0186322853     0.0001211146 25063.0681735215
   -0.9163265306     1.1588082142    66.3948199388    67.4730103701     0.0188179730     0.0001211146 25065.4745649749
   -0.9142857143     1.1537410325    66.1044918138    67.1930968136     0.0189997415     0.0001211146 25067.8766238540
   -0.9122448980     1.1487311539    65.8174469161    66.9162057960     0.0191769601     0.0001211116 25070.2743177885
   -0.9102040816     1.1437765557    65.5335693460    66.6422550975     0.0193502167     0.0001211076 25072.6675368117
   -0.9081632653     1.1388753294    65.2527497676    66.3711567837     0.0195198848     0.0001211036 25075.0562390387
   -0.9061224490     1.1340256726    64.9748848997    66.1028226925     0.0196862282     0.0001211003 25077.4404779815
   -0.9040816327     1.1292258803    64.6998770572    65.8372581994     0.0198510458     0.0001211042 25079.8203909607
   -0.9020408163     1.1244743380    64.4276337361    65.5742699668     0.0200125775     0.0001211080 25082.1960637924
   -0.9000000000     1.1197695150    64.1580672368    65.3137752132     0.0201709094     0.0001211119 25084.5674779905
   -0.8979591837     1.1151099586    63.8910943224    65.0556734985     0.0203257410     0.0001211142 25086.9345995372
   -0.8959183673     1.1104942885    63.6266359071    64.7998568256     0.0204765679     0.0001211130 25089.2973682058
   -0.8938775510     1.1059211919    63.3646167727    64.5463089910     0.0206244200     0.0001211117 25091.6557164155
   -0.8918367347     1.1013894190    63.1049653087    64.2949624587     0.0207693684     0.0001211105 25094.0096336347
   -0.8897959184     1.0968977787    62.8476132749    64.0456934389     0.0209104436     0.0001211055 25096.3590091355
   -0.8877551020     1.0924451350    62.5924955840    63.7984117765     0.0210472081     0.0001210950 25098.7037404972
   -0.8857142857     1.0880304035    62.3395501007    63.5531406574     0.0211811510     0.0001210843 25101.0437530570
   -0.8836734694     1.0836525480    62.0887174586    63.3098298409     0.0213124316     0.0001210737 25103.3790514941
   -0.8816326531     1.0793105778    61.8399408902    63.0683736998     0.0214401972     0.0001210599 25105.7095419999
   -0.8795918367     1.0750035447    61.5931660703    62.8286578393     0.0215633993     0.0001210391 25108.0350409751
   -0.8775510204     1.0707305406    61.3483409720    62.5907442344     0.0216840276     0.0001210183 25110.3554606627
   -0.8755102041     1.0664906953    61.1054157324    62.3545896882     0.0218021985     0.0001209976 25112.6708067667
   -0.8734693878     1.0622831742    60.8643425293    62.1201163395     0.0219173876     0.0001209751 25114.9810839252
   -0.8714285714     1.0581071761    60.6250754655    61.8871550872     0.0220274448     0.0001209433 25117.2860632380
   -0.8693877551     1.0539619319    60.3875704629    61.6558067393     0.0221348987     0.0001209107 25119.5855967406
   -0.8673469388     1.0498467020    60.1517851626    61.4260473904     0.0222400714     0.0001208784 25121.8796671674
   -0.8653061224     1.0457607758    59.9176788330    61.1978269579     0.0223427997     0.0001208455 25124.1683236284
   -0.8632653061     1.0417034691    59.6852122830    60.9709758863     0.0224408083     0.0001208044 25126.4513757099
   -0.8612244898     1.0376741234    59.4543477825    60.7455347882     0.0225354645     0.0001207596 25128.7286509096
   -0.8591836735     1.0336721045    59.2250489867    60.5215375698     0.0226279945     0.0001207150 25131.0000921523
   -0.8571428571     1.0296968008    58.9972808661    60.2989513937     0.0227184365     0.0001206708 25133.2657689239
   -0.8551020408     1.0257476230    58.7710096411    60.0776496697     0.0228051706     0.0001206213 25135.5255621058
   -0.8530612245     1.0218240020    58.5462027200    59.8575283693     0.0228869501     0.0001205625 25137.7792035290
   -0.8510204082     1.0179253889    58.3228286418    59.6387109911     0.0229664796     0.0001205032 25140.0265794931
   -0.8489795918     1.0140512533    58.1008570218    59.4211840624     0.0230440541     0.0001204442 25142.2677233765
   -0.8469387755     1.0102010827    57.8802585008    59.2049012805     0.0231193779     0.0001203845 25144.5025967735
   -0.8448979592     1.0063743820    57.6610046973    58.9897003781     0.0231901144     0.0001203163 25146.7310359813
   -0.8428571429     1.0025706719    57.4430681625    58.7756081993     0.0232572111     0.0001202428 25148.9529067104
   -0.8408163265     0.9987894889    57.2264223382    58.5627017715     0.0233224758     0.0001201698 25151.1681109411
   -0.8387755102     0.9950303845    57.0110415164    58.3509571331     0.0233859392     0.0001200971 25153.3766669117
   -0.8367346939     0.9912929239    56.7969008020    58.1402959391     0.0234466683     0.0001200217 25155.5785725546
   -0.8346938776     0.9875766864    56.5839760772    57.9305928372     0.0235028962     0.0001199380 25157.7736343087
   -0.8326530612     0.9838812640    56.3722439680    57.7219246592     0.0235563719     0.0001198513 25159.9616614235
   -0.8306122449     0.9802062611    56.1616818123    57.5143296321     0.0236081581     0.0001197652 25162.1426563001
   -0.8285714286     0.9765512941    55.9522676300    57.3077872900     0.0236582811     0.0001196794 25164.3166721400
   -0.8265306122     0.9729159908    55.7439800947    57.1022112679     0.0237056060     0.0001195905 25166.4836611003
   -0.8244897959     0.9692999900    55.5367985066    56.8974522401     0.0237478876     0.0001194912 25168.6433632276
   -0.8224489796     0.9657029407    55.3307027670    56.6936642573     0.0237881656     0.0001193910 25170.7956557618
   -0.8204081633     0.9621245024    55.1256733545    56.4908532304     0.0238268837     0.0001192913 25172.9405523206
   -0.8183673469     0.9585643440    54.9216913014    56.2890016007     0.0238640666     0.0001191922 25175.0780817999
   -0.8163265306     0.9550221437    54.7187381727    56.0880448541     0.0238989101     0.0001190909 25177.2082250196
   -0.8142857143     0.9514975886    54.5167960447    55.8878131116     0.0239287619     0.0001189791 25179.3308015680
   -0.8122448980     0.9479903746    54.3158474857    55.6884911247     0.0239571510     0.0001188679 25181.4456909342
   -0.8102040816     0.9445002057    54.1158755372    55.4900632383     0.0239840999     0.0001187572 25183.5529078696
   -0.8081632653     0.9410267938    53.9168636960    55.2925142223     0.0240096310     0.0001186470 25185.6524825758
   -0.8061224490     0.9375698586    53.7187958976    55.0957685655     0.0240327068     0.0001185339 25187.7443932113
   -0.8040816327     0.9341291270    53.5216564995    54.8997598898     0.0240524416     0.0001184154 25189.8285340424
   -0.8020408163     0.9307043332    53.3254302661    54.7045506031     0.0240701907     0.0001182953 25191.9047983529
   -0.8000000000     0.9272952180    53.1301023542    54.5101634498     0.0240866100     0.0001181758 25193.9731955768
   -0.7979591837     0.9239015290    52.9356582985    54.3165851192     0.0241017198     0.0001180568 25196.0337506389
   -0.7959183673     0.9205230201    52.7420839987    54.1238026373     0.0241155396     0.0001179383 25198.0864723716
   -0.7938775510     0.9171594514    52.5493657065    53.9315964370     0.0241244773     0.0001178092 25200.1312095578
   -0.7918367347     0.9138105888    52.3574900132    53.7401444649     0.0241318726     0.0001176797 25202.1679047089
   -0.7897959184     0.9104762040    52.1664438387    53.5494517311     0.0241380413     0.0001175508 25204.1965430105
   -0.7877551020     0.9071560743    51.9762144194    53.3595065240     0.0241430017     0.0001174223 25206.2171127401
   -0.7857142857     0.9038499823    51.7867892983    53.1702857754     0.0241465687     0.0001172938 25208.2296051324
   -0.7836734694     0.9005577156    51.5981563144    52.9817293357     0.0241479047     0.0001171625 25210.2340142518
   -0.7816326531     0.8972790671    51.4103035930    52.7938238518     0.0241469838     0.0001170283 25212.2303368710
   -0.7795918367     0.8940138344    51.2232195364    52.6066221096     0.0241449298     0.0001168947 25214.2185723549
   -0.7775510204     0.8907618196    51.0368928148    52.4201137397     0.0241417594     0.0001167615 25216.1987225507
   -0.7755102041     0.8875228296    50.8513123577    52.2342886124     0.0241374891     0.0001166289 25218.1707916832
   -0.7734693878     0.8842966755    50.6664673458    52.0490961535     0.0241314250     0.0001164946 25220.1347842594
   -0.7714285714     0.8810831728    50.4823472028    51.8645085617     0.0241232665     0.0001163576 25222.0906555841
   -0.7693877551     0.8778821410    50.2989415880    51.6805583908     0.0241137622     0.0001162202 25224.0383872632
   -0.7673469388     0.8746934035    50.1162403889    51.4972535108     0.0241032260     0.0001160834 25225.9779843461
   -0.7653061224     0.8715167878    49.9342337142    51.3145848923     0.0240916729     0.0001159470 25227.9094531884
   -0.7632653061     0.8683521249    49.7529118872    51.1325398544     0.0240790505     0.0001158108 25229.8328013976
   -0.7612244898     0.8651992496    49.5722654391    50.9510659600     0.0240646088     0.0001156726 25231.7480377804
   -0.7591836735     0.8620580001    49.3922851027    50.7701722130     0.0240486668     0.0001155333 25233.6551722937
   -0.7571428571     0.8589282182    49.2129618067    50.5898807874     0.0240317697     0.0001153945 25235.5542159963
   -0.7551020408     0.8558097488    49.0342866700    50.4101835931     0.0240139315     0.0001152561 25237.4451810039
   -0.7530612245     0.8527024401    48.8562509955    50.2310727101     0.0239951655     0.0001151181 25239.3280804454
   -0.7510204082     0.8496061434    48.6788462656    50.0525315531     0.0239753312     0.0001149802 25241.2029284219
   -0.7489795918     0.8465207132    48.5020641364    49.8745454984     0.0239543187     0.0001148418 25243.0697399665
   -0.7469387755     0.8434460067    48.3258964330    49.6971156253     0.0239322897     0.0001147035 25244.9285310068
   -0.7448979592     0.8403818842    48.1503351447    49.5202420994     0.0239093868     0.0001145656 25246.7793200343
   -0.7428571429     0.8373282086    47.9753724206    49.3439177834     0.0238856225     0.0001144282 25248.6221333884
   -0.7408163265     0.8342848456    47.8010005647    49.1681356831     0.0238610091     0.0001142912 25250.4569969686
   -0.7387755102     0.8312516635    47.6272120320    48.9928889426     0.0238355586     0.0001141546 25252.2839364321
   -0.7367346939     0.8282285332    47.4539994242    48.8181708413     0.0238092828     0.0001140184 25254.1029773854
   -0.7346938776     0.8252153280    47.2813554856    48.6439747900     0.0237821933     0.0001138827 25255.9141453807
   -0.7326530612     0.8222119238    47.1092730996    48.4702943270     0.0237543016     0.0001137473 25257.7174659119
   -0.7306122449     0.8192181987    46.9377452847    48.2971231149     0.0237256189     0.0001136123 25259.5129644111
   -0.7285714286     0.8162340331    46.7667651908    48.1244568048     0.0236961889     0.0001134779 25261.3006662455
   -0.7265306122     0.8132593097    46.5963260961    47.9522981082     0.0236661762     0.0001133444 25263.0806017134
   -0.7244897959     0.8102939134    46.4264214035    47.7806486879     0.0236357249     0.0001132122 25264.8528227449
   -0.7224489796     0.8073377312    46.2570446372    47.6094842278     0.0236045238     0.0001130804 25266.6173507454
   -0.7204081633     0.8043906520    46.0881894401    47.4387989272     0.0235725825     0.0001129490 25268.3742067768
   -0.7183673469     0.8014525670    45.9198495701    47.2685871468     0.0235399115     0.0001128180 25270.1234175738
   -0.7163265306     0.7985233692    45.7520188977    47.0988433437     0.0235065210     0.0001126873 25271.8650153681
   -0.7142857143     0.7956029535    45.5846914028    46.9295891934     0.0234728945     0.0001125584 25273.5990377184
   -0.7122448980     0.7926912167    45.4178611722    46.7608072354     0.0234388305     0.0001124307 25275.3255273478
   -0.7102040816     0.7897880574    45.2515223968    46.5924801945     0.0234041287     0.0001123035 25277.0445282996
   -0.7081632653     0.7868933760    45.0856693690    46.4245996982     0.0233687427     0.0001121766 25278.7560528785
   -0.7061224490     0.7840070746    44.9202964804    46.2571606673     0.0233326817     0.0001120501 25280.4601357792
   -0.7040816327     0.7811290570    44.7553982192    46.0901642070     0.0232960612     0.0001119242 25282.1568196855
   -0.7020408163     0.7782592286    44.5909691678    45.9236307002     0.0232593316     0.0001118003 25283.8461464007
   -0.7000000000     0.7753974966    44.4270040008    45.7575753237     0.0232228505     0.0001116795 25285.5281568682
   -0.6979591837     0.7725437695    44.2634974825    45.5919415752     0.0231857233     0.0001115590 25287.2028911912
   -0.6959183673     0.7696979575    44.1004444649    45.4267247920     0.0231479585     0.0001114388 25288.8703886521
   -0.6938775510     0.7668599722    43.9378398857    45.2619203239     0.0231095632     0.0001113190 25290.5306701387
   -0.6918367347     0.7640297268    43.7756787663    45.0975237294     0.0230705468     0.0001111994 25292.1837524196
