shape model output for Neptune's 1-bar isobaric surface. models are described in Mankovich et al. 2026, PSJ.
the models summarized in this file assume the symmetric H-band 2014 wind profile from Tollefson et al. (2018, Icarus 311) Table 1.
the distribution of models in this file comes from Markov chain Monte Carlo fits to the Voyager 2 radio occultation reported in Lindal (1992, AJ 103).
these solutions vary the polar radius to fit the Voyager 2 radio occultation to a Gaussian with standard deviation 5 km.
the wind fit polynomial coefficients are also allowed to vary within their Gaussian uncertainties following T18 Table 1.
this model has wind polynomial cofficients a, b, c:    -2.779871e+02    1.953567e-01   -1.007232e-05
mu=sin(phi), phi [radians], and lat_deg [degrees] refer to planetocentric latitude; lat_pg_deg gives planetographic latitude in degrees.
              mu          phi_rad          lat_deg       lat_pg_deg          psi_rad    omega_rad_s-1             r_km 
   -1.0000000000     1.5707963268    90.0000000000    90.0000000000     0.0000000000     0.0002994544 24110.0096724392
   -0.9998144712     1.5515331758    88.8963027451    89.1129219153     0.0037807177     0.0002990495 24110.8888259652
   -0.9996289425     1.5435536961    88.4391122386    88.7446322005     0.0053323293     0.0002986342 24111.7656903717
   -0.9994434137     1.5374305386    88.0882811581    88.4614585795     0.0065131747     0.0002982204 24112.6402712861
   -0.9992578850     1.5322682374    87.7925030866    88.2222534244     0.0075005584     0.0002978077 24113.5125774023
   -0.9990723562     1.5277199472    87.5319052508    88.0110876274     0.0083633102     0.0002973949 24114.3826149002
   -0.9988868275     1.5236077873    87.2962958471    87.8198077857     0.0091370070     0.0002969848 24115.2503882517
   -0.9987012987     1.5198260904    87.0796205724    87.6435499227     0.0098424239     0.0002965714 24116.1159009627
   -0.9985157699     1.5163060092    86.8779347757    87.4791751100     0.0104936234     0.0002961597 24116.9791574189
   -0.9983302412     1.5129997231    86.6884985354    87.3244919663     0.0111001794     0.0002957489 24117.8401618400
   -0.9981447124     1.5098724146    86.5093169626    87.1779067683     0.0116690935     0.0002953387 24118.6989193662
   -0.9979591837     1.5068978001    86.3388841007    87.0382179430     0.0122056781     0.0002949291 24119.5554357311
   -0.9959183673     1.4804147767    84.8215186329    85.7815577693     0.0167558439     0.0002904554 24128.8307499464
   -0.9938775510     1.4600831244    83.6566007642    84.7978662766     0.0199188408     0.0002860403 24137.8423586965
   -0.9918367347     1.4429339318    82.6740244067    83.9530343086     0.0223229340     0.0002816836 24146.5969514195
   -0.9897959184     1.4278174270    81.8079124837    83.1956742194     0.0242210115     0.0002773850 24155.1010767683
   -0.9877551020     1.4141440401    81.0244851196    82.4997379179     0.0257480186     0.0002731456 24163.3612183499
   -0.9857142857     1.4015635991    80.3036789465    81.8498947675     0.0269865570     0.0002689623 24171.3837851554
   -0.9836734694     1.3898479862    79.6324237728    81.2362903298     0.0279927522     0.0002648348 24179.1749609346
   -0.9816326531     1.3788387766    79.0016425268    80.6521980642     0.0288076286     0.0002607656 24186.7409627822
   -0.9795918367     1.3684206412    78.4047273409    80.0927068172     0.0294607996     0.0002567502 24194.0878408912
   -0.9775510204     1.3585065303    77.8366906282    79.5542302864     0.0299767221     0.0002527912 24201.2215052296
   -0.9755102041     1.3490288258    77.2936581616    79.0339751341     0.0303742612     0.0002488872 24208.1478293830
   -0.9734693878     1.3399337634    76.7725494708    78.5297559267     0.0306690383     0.0002450376 24214.8725017186
   -0.9714285714     1.3311777582    76.2708673246    78.0398281803     0.0308741913     0.0002412423 24221.4011605259
   -0.9693877551     1.3227248956    75.7865539757    77.5627696283     0.0310008114     0.0002375011 24227.7393158385
   -0.9673469388     1.3145451659    75.3178899826    77.0973705415     0.0310577947     0.0002338112 24233.8923845406
   -0.9653061224     1.3066131882    74.8634211408    76.6361537206     0.0309400203     0.0002297147 24239.8610875118
   -0.9632653061     1.2989072697    74.4219045316    76.1730447644     0.0305631627     0.0002248568 24245.6073110489
   -0.9612244898     1.2914086960    73.9922679079    75.7235661751     0.0302168551     0.0002203805 24251.1344359684
   -0.9591836735     1.2841011890    73.5735785965    75.2867430186     0.0299003598     0.0002162509 24256.4632859072
   -0.9571428571     1.2769704845    73.1650193268    74.8614387257     0.0296081040     0.0002124190 24261.6115859456
   -0.9551020408     1.2700040004    72.7658691871    74.4467535805     0.0293369670     0.0002088497 24266.5946643049
   -0.9530612245     1.2631905710    72.3754884407    74.0419237876     0.0290847836     0.0002055156 24271.4260344786
   -0.9510204082     1.2565202341    71.9933062850    73.6462835854     0.0288498964     0.0002023936 24276.1174705363
   -0.9489795918     1.2499840563    71.6188108859    73.2592223234     0.0286305807     0.0001994629 24280.6794152430
   -0.9469387755     1.2435739909    71.2515411916    72.8801565678     0.0284247006     0.0001967028 24285.1210308832
   -0.9448979592     1.2372827589    70.8910801509    72.5085944636     0.0282309505     0.0001940976 24289.4505345799
   -0.9428571429     1.2311037506    70.5370490537    72.1440904330     0.0280481633     0.0001916334 24293.6752809898
   -0.9408163265     1.2250309424    70.1891027733    71.7862395647     0.0278752956     0.0001892980 24297.8018908386
   -0.9387755102     1.2190588266    69.8469257429    71.4346847229     0.0277116219     0.0001870812 24301.8363503385
   -0.9367346939     1.2131823517    69.5102285299    71.0891023253     0.0275565462     0.0001849742 24305.7840268033
   -0.9346938776     1.2073968710    69.1787449051    70.7491621465     0.0274089515     0.0001829669 24309.6498940614
   -0.9326530612     1.2016980990    68.8522293213    70.4145790111     0.0272681462     0.0001810516 24313.4383952642
   -0.9306122449     1.1960820730    68.5304547326    70.0850903958     0.0271335110     0.0001792211 24317.1536438674
   -0.9285714286     1.1905451201    68.2132107017    69.7604540628     0.0270044910     0.0001774692 24320.7994422590
   -0.9265306122     1.1850838286    67.9003017483    69.4404992560     0.0268815176     0.0001757938 24324.3791921711
   -0.9244897959     1.1796950225    67.5915459031    69.1249741448     0.0267633717     0.0001741866 24327.8961131059
   -0.9224489796     1.1743757395    67.2867734365    68.8136761098     0.0266494790     0.0001726424 24331.3531072096
   -0.9204081633     1.1691232113    66.9858257369    68.5064559706     0.0265400043     0.0001711590 24334.7529675353
   -0.9183673469     1.1639348463    66.6885543185    68.2031548217     0.0264347656     0.0001697331 24338.0981876290
   -0.9163265306     1.1588082142    66.3948199388    67.9035750599     0.0263327445     0.0001683584 24341.3910953616
   -0.9142857143     1.1537410325    66.1044918138    67.6076175562     0.0262344933     0.0001670347 24344.6339222987
   -0.9122448980     1.1487311539    65.8174469161    67.3151230472     0.0261393796     0.0001657578 24347.8286827099
   -0.9102040816     1.1437765557    65.5335693460    67.0259485796     0.0260469313     0.0001645239 24350.9773187754
   -0.9081632653     1.1388753294    65.2527497676    66.7400214665     0.0259577880     0.0001633337 24354.0815770024
   -0.9061224490     1.1340256726    64.9748848997    66.4571631125     0.0258706352     0.0001621807 24357.1431469979
   -0.9040816327     1.1292258803    64.6998770572    66.1773384309     0.0257865655     0.0001610674 24360.1636111639
   -0.9020408163     1.1244743380    64.4276337361    65.9003757904     0.0257041979     0.0001599875 24363.1444135284
   -0.9000000000     1.1197695150    64.1580672368    65.6262414202     0.0256244735     0.0001589430 24366.0869653660
   -0.8979591837     1.1151099586    63.8910943224    65.3547862173     0.0255462428     0.0001579286 24368.9926217568
   -0.8959183673     1.1104942885    63.6266359071    65.0859834997     0.0254704204     0.0001569464 24371.8625508374
   -0.8938775510     1.1059211919    63.3646167727    64.8196904711     0.0253958269     0.0001559911 24374.6979673391
   -0.8918367347     1.1013894190    63.1049653087    64.5558918006     0.0253234445     0.0001550654 24377.4999616482
   -0.8897959184     1.0968977787    62.8476132749    64.2944594783     0.0252522300     0.0001541644 24380.2695810916
   -0.8877551020     1.0924451350    62.5924955840    64.0353579229     0.0251826985     0.0001532892 24383.0078400334
   -0.8857142857     1.0880304035    62.3395501007    63.7785058416     0.0251145155     0.0001524378 24385.7156399266
   -0.8836734694     1.0836525480    62.0887174586    63.5238298136     0.0250474357     0.0001516085 24388.3939291791
   -0.8816326531     1.0793105778    61.8399408902    63.2713024730     0.0249819724     0.0001508024 24391.0434987726
   -0.8795918367     1.0750035447    61.5931660703    63.0208265028     0.0249173751     0.0001500163 24393.6652245480
   -0.8775510204     1.0707305406    61.3483409720    62.7723688246     0.0248539747     0.0001492505 24396.2598146548
   -0.8755102041     1.0664906953    61.1054157324    62.5258769415     0.0247917250     0.0001485044 24398.8280637086
   -0.8734693878     1.0622831742    60.8643425293    62.2812802170     0.0247302279     0.0001477760 24401.3706220084
   -0.8714285714     1.0581071761    60.6250754655    62.0385523544     0.0246698256     0.0001470659 24403.8881937299
   -0.8693877551     1.0539619319    60.3875704629    61.7976397393     0.0246103516     0.0001463730 24406.3814107110
   -0.8673469388     1.0498467020    60.1517851626    61.5584841316     0.0245515286     0.0001456959 24408.8508700248
   -0.8653061224     1.0457607758    59.9176788330    61.3210560903     0.0244935538     0.0001450347 24411.2971922360
   -0.8632653061     1.0417034691    59.6852122830    61.0853189433     0.0244364711     0.0001443893 24413.7208940031
   -0.8612244898     1.0376741234    59.4543477825    60.8512159689     0.0243799491     0.0001437580 24416.1225539329
   -0.8591836735     1.0336721045    59.2250489867    60.6187097993     0.0243239698     0.0001431404 24418.5026644594
   -0.8571428571     1.0296968008    58.9972808661    60.3877862017     0.0242688964     0.0001425373 24420.8617171318
   -0.8551020408     1.0257476230    58.7710096411    60.1583896383     0.0242143489     0.0001419471 24423.2001931553
   -0.8530612245     1.0218240020    58.5462027200    59.9304839772     0.0241602657     0.0001413692 24425.5185687096
   -0.8510204082     1.0179253889    58.3228286418    59.7040368415     0.0241066307     0.0001408032 24427.8172587375
   -0.8489795918     1.0140512533    58.1008570218    59.4790353377     0.0240537493     0.0001402500 24430.0966775346
   -0.8469387755     1.0102010827    57.8802585008    59.2554308962     0.0240012861     0.0001397079 24432.3572288664
   -0.8448979592     1.0063743820    57.6610046973    59.0331929704     0.0239492033     0.0001391766 24434.5993297130
   -0.8428571429     1.0025706719    57.4430681625    58.8122933042     0.0238974869     0.0001386558 24436.8233468084
   -0.8408163265     0.9987894889    57.2264223382    58.5927104290     0.0238462257     0.0001381455 24439.0296422738
   -0.8387755102     0.9950303845    57.0110415164    58.3744210825     0.0237954624     0.0001376456 24441.2185528991
   -0.8367346939     0.9912929239    56.7969008020    58.1573894951     0.0237450071     0.0001371553 24443.3904254704
   -0.8346938776     0.9875766864    56.5839760772    57.9415908432     0.0236948476     0.0001366742 24445.5455815188
   -0.8326530612     0.9838812640    56.3722439680    57.7270010596     0.0236449718     0.0001362020 24447.6843341302
   -0.8306122449     0.9802062611    56.1616818123    57.5135968032     0.0235953678     0.0001357386 24449.8069935817
   -0.8285714286     0.9765512941    55.9522676300    57.3013661878     0.0235462118     0.0001352843 24451.9138372332
   -0.8265306122     0.9729159908    55.7439800947    57.0902763532     0.0234973024     0.0001348383 24454.0051498790
   -0.8244897959     0.9692999900    55.5367985066    56.8803053373     0.0234486177     0.0001344003 24456.0812223216
   -0.8224489796     0.9657029407    55.3307027670    56.6714324528     0.0234001474     0.0001339700 24458.1423173631
   -0.8204081633     0.9621245024    55.1256733545    56.4636376026     0.0233518814     0.0001335473 24460.1886939480
   -0.8183673469     0.9585643440    54.9216913014    56.2569012556     0.0233038099     0.0001331319 24462.2205968860
   -0.8163265306     0.9550221437    54.7187381727    56.0512048656     0.0232559310     0.0001327237 24464.2382586538
   -0.8142857143     0.9514975886    54.5167960447    55.8465366206     0.0232083512     0.0001323230 24466.2419147256
   -0.8122448980     0.9479903746    54.3158474857    55.6428709143     0.0231609281     0.0001319290 24468.2317821620
   -0.8102040816     0.9445002057    54.1158755372    55.4401903043     0.0231136530     0.0001315415 24470.2080831320
   -0.8081632653     0.9410267938    53.9168636960    55.2384778163     0.0230665178     0.0001311605 24472.1710448781
   -0.8061224490     0.9375698586    53.7187958976    55.0377169244     0.0230195145     0.0001307858 24474.1208735479
   -0.8040816327     0.9341291270    53.5216564995    54.8378915367     0.0229726351     0.0001304171 24476.0577666102
   -0.8020408163     0.9307043332    53.3254302661    54.6389859791     0.0229258721     0.0001300544 24477.9819152137
   -0.8000000000     0.9272952180    53.1301023542    54.4409849813     0.0228792180     0.0001296975 24479.8935031213
   -0.7979591837     0.9239015290    52.9356582985    54.2438736627     0.0228326654     0.0001293463 24481.7927136529
   -0.7959183673     0.9205230201    52.7420839987    54.0476375191     0.0227862075     0.0001290006 24483.6797272657
   -0.7938775510     0.9171594514    52.5493657065    53.8522655144     0.0227398915     0.0001286604 24485.5547185147
   -0.7918367347     0.9138105888    52.3574900132    53.6577410205     0.0226936612     0.0001283256 24487.4178563421
   -0.7897959184     0.9104762040    52.1664438387    53.4640499848     0.0226474996     0.0001279959 24489.2693044377
   -0.7877551020     0.9071560743    51.9762144194    53.2711792992     0.0226014009     0.0001276711 24491.1092255521
   -0.7857142857     0.9038499823    51.7867892983    53.0791161708     0.0225553589     0.0001273513 24492.9377733935
   -0.7836734694     0.9005577156    51.5981563144    52.8878481125     0.0225093682     0.0001270362 24494.7550960538
   -0.7816326531     0.8972790671    51.4103035930    52.6973629324     0.0224634231     0.0001267258 24496.5613391441
   -0.7795918367     0.8940138344    51.2232195364    52.5076487250     0.0224175183     0.0001264199 24498.3566458670
   -0.7775510204     0.8907618196    51.0368928148    52.3186938619     0.0223716486     0.0001261185 24500.1411575943
   -0.7755102041     0.8875228296    50.8513123577    52.1304869826     0.0223258089     0.0001258215 24501.9150134667
   -0.7734693878     0.8842966755    50.6664673458    51.9430169859     0.0222799943     0.0001255287 24503.6783420555
   -0.7714285714     0.8810831728    50.4823472028    51.7562730220     0.0222342000     0.0001252401 24505.4312700992
   -0.7693877551     0.8778821410    50.2989415880    51.5702444851     0.0221884213     0.0001249555 24507.1739239433
   -0.7673469388     0.8746934035    50.1162403889    51.3849210059     0.0221426539     0.0001246749 24508.9064295330
   -0.7653061224     0.8715167878    49.9342337142    51.2002924444     0.0220968934     0.0001243983 24510.6289117595
   -0.7632653061     0.8683521249    49.7529118872    51.0163488817     0.0220511354     0.0001241254 24512.3414822053
   -0.7612244898     0.8651992496    49.5722654391    50.8330806148     0.0220053761     0.0001238563 24514.0442548722
   -0.7591836735     0.8620580001    49.3922851027    50.6504781500     0.0219596113     0.0001235909 24515.7373434243
   -0.7571428571     0.8589282182    49.2129618067    50.4685321961     0.0219138373     0.0001233290 24517.4208568227
   -0.7551020408     0.8558097488    49.0342866700    50.2872336589     0.0218680503     0.0001230706 24519.0948994786
   -0.7530612245     0.8527024401    48.8562509955    50.1065736350     0.0218222468     0.0001228157 24520.7595714008
   -0.7510204082     0.8496061434    48.6788462656    49.9265434071     0.0217764232     0.0001225641 24522.4149729258
   -0.7489795918     0.8465207132    48.5020641364    49.7471344387     0.0217305762     0.0001223158 24524.0612072173
   -0.7469387755     0.8434460067    48.3258964330    49.5683383678     0.0216847025     0.0001220708 24525.6983680834
   -0.7448979592     0.8403818842    48.1503351447    49.3901470029     0.0216387990     0.0001218289 24527.3265487069
   -0.7428571429     0.8373282086    47.9753724206    49.2125523182     0.0215928627     0.0001215901 24528.9458419385
   -0.7408163265     0.8342848456    47.8010005647    49.0355464490     0.0215468904     0.0001213543 24530.5563402969
   -0.7387755102     0.8312516635    47.6272120320    48.8591216872     0.0215008796     0.0001211216 24532.1581356975
   -0.7367346939     0.8282285332    47.4539994242    48.6832704763     0.0214548273     0.0001208917 24533.7513118898
   -0.7346938776     0.8252153280    47.2813554856    48.5079854081     0.0214087309     0.0001206648 24535.3359532349
   -0.7326530612     0.8222119238    47.1092730996    48.3332592186     0.0213625878     0.0001204406 24536.9121441328
   -0.7306122449     0.8192181987    46.9377452847    48.1590847842     0.0213163956     0.0001202192 24538.4799659617
   -0.7285714286     0.8162340331    46.7667651908    47.9854551171     0.0212701518     0.0001200005 24540.0394971648
   -0.7265306122     0.8132593097    46.5963260961    47.8123633628     0.0212238541     0.0001197844 24541.5908133349
   -0.7244897959     0.8102939134    46.4264214035    47.6398027959     0.0211775004     0.0001195710 24543.1339873841
   -0.7224489796     0.8073377312    46.2570446372    47.4677668171     0.0211310884     0.0001193601 24544.6690935012
   -0.7204081633     0.8043906520    46.0881894401    47.2962504122     0.0210846415     0.0001191518 24546.1962073991
   -0.7183673469     0.8014525670    45.9198495701    47.1252463367     0.0210381424     0.0001189461 24547.7154022564
   -0.7163265306     0.7985233692    45.7520188977    46.9547478126     0.0209915796     0.0001187427 24549.2267488055
   -0.7142857143     0.7956029535    45.5846914028    46.7847487101     0.0209449512     0.0001185417 24550.7303153989
   -0.7122448980     0.7926912167    45.4178611722    46.6152430098     0.0208982555     0.0001183431 24552.2261680741
   -0.7102040816     0.7897880574    45.2515223968    46.4462248008     0.0208514905     0.0001181467 24553.7143706145
   -0.7081632653     0.7868933760    45.0856693690    46.2776882772     0.0208046547     0.0001179526 24555.1949860020
   -0.7061224490     0.7840070746    44.9202964804    46.1096277368     0.0207577463     0.0001177607 24556.6680815928
   -0.7040816327     0.7811290570    44.7553982192    45.9420375769     0.0207107638     0.0001175710 24558.1337193439
   -0.7020408163     0.7782592286    44.5909691678    45.7749122928     0.0206637057     0.0001173834 24559.5919594131
   -0.7000000000     0.7753974966    44.4270040008    45.6082464753     0.0206165704     0.0001171980 24561.0428609343
   -0.6979591837     0.7725437695    44.2634974825    45.4420348081     0.0205693567     0.0001170145 24562.4864820418
