shape model output for Neptune's 1-bar isobaric surface. models are described in Mankovich et al. 2026, PSJ.
the models summarized in this file assume the symmetric H-band 2014 wind profile from Tollefson et al. (2018, Icarus 311) Table 1.
the distribution of models in this file comes from Markov chain Monte Carlo fits to the Voyager 2 radio occultation reported in Lindal (1992, AJ 103).
these solutions vary the polar radius to fit the Voyager 2 radio occultation to a Gaussian with standard deviation 5 km.
the wind fit polynomial coefficients are also allowed to vary within their Gaussian uncertainties following T18 Table 1.
this model has wind polynomial cofficients a, b, c:    -2.421793e+02    1.856793e-01   -5.610732e-06
mu=sin(phi), phi [radians], and lat_deg [degrees] refer to planetocentric latitude; lat_pg_deg gives planetographic latitude in degrees.
              mu          phi_rad          lat_deg       lat_pg_deg          psi_rad    omega_rad_s-1             r_km 
   -1.0000000000     1.5707963268    90.0000000000    90.0000000000     0.0000000000     0.0002771610 24168.6764666762
   -0.9998144712     1.5515331758    88.8963027451    89.0848295150     0.0032904129     0.0002768033 24169.4434220435
   -0.9996289425     1.5435536961    88.4391122386    88.7050423133     0.0046413554     0.0002764365 24170.2084648024
   -0.9994434137     1.5374305386    88.0882811581    88.4131401780     0.0056698595     0.0002760709 24170.9715984183
   -0.9992578850     1.5322682374    87.7925030866    88.1666546296     0.0065301763     0.0002757064 24171.7328318239
   -0.9990723562     1.5277199472    87.5319052508    87.9491434941     0.0072821811     0.0002753417 24172.4921715364
   -0.9988868275     1.5236077873    87.2962958471    87.7521874894     0.0079568102     0.0002749794 24173.2496223341
   -0.9987012987     1.5198260904    87.0796205724    87.5707683500     0.0085721458     0.0002746143 24174.0051878514
   -0.9985157699     1.5163060092    86.8779347757    87.4016413203     0.0091404035     0.0002742506 24174.7588749531
   -0.9983302412     1.5129997231    86.6884985354    87.2425434835     0.0096699085     0.0002738877 24175.5106884576
   -0.9981447124     1.5098724146    86.5093169626    87.0918287270     0.0101667482     0.0002735254 24176.2606289251
   -0.9979591837     1.5068978001    86.3388841007    86.9482556641     0.0106355401     0.0002731636 24177.0086989372
   -0.9959183673     1.4804147767    84.8215186329    85.6591921510     0.0146201609     0.0002692117 24185.1152301147
   -0.9938775510     1.4600831244    83.6566007642    84.6537870917     0.0174041847     0.0002653116 24193.0016420238
   -0.9918367347     1.4429339318    82.6740244067    83.7931601232     0.0195326030     0.0002614631 24200.6735218355
   -0.9897959184     1.4278174270    81.8079124837    83.0239818627     0.0212244146     0.0002576659 24208.1362482334
   -0.9877551020     1.4141440401    81.0244851196    82.3191563813     0.0225962762     0.0002539210 24215.3952406683
   -0.9857142857     1.4015635991    80.3036789465    81.6627062398     0.0237195009     0.0002502257 24222.4557284747
   -0.9836734694     1.3898479862    79.6324237728    81.0443324289     0.0246424548     0.0002465797 24229.3229660998
   -0.9816326531     1.3788387766    79.0016425268    80.4569790863     0.0254004147     0.0002429852 24236.0019955504
   -0.9795918367     1.3684206412    78.4047273409    79.8954975924     0.0260188493     0.0002394382 24242.4977966918
   -0.9775510204     1.3585065303    77.8366906282    79.3561013599     0.0265187200     0.0002359410 24248.8153242753
   -0.9755102041     1.3490288258    77.2936581616    78.8358426015     0.0269161961     0.0002324924 24254.9593882000
   -0.9734693878     1.3399337634    76.7725494708    78.3324067924     0.0272246461     0.0002290918 24260.9346339051
   -0.9714285714     1.3311777582    76.2708673246    77.8439400359     0.0274552982     0.0002257392 24266.7457421574
   -0.9693877551     1.3227248956    75.7865539757    77.3689272186     0.0276176231     0.0002224345 24272.3972134940
   -0.9673469388     1.3145451659    75.3178899826    76.9060845411     0.0277192242     0.0002191750 24277.8934316799
   -0.9653061224     1.3066131882    74.8634211408    76.4456612188     0.0276152989     0.0002153093 24283.2326238195
   -0.9632653061     1.2989072697    74.4219045316    75.9788259798     0.0271734055     0.0002102625 24288.3601422745
   -0.9612244898     1.2914086960    73.9922679079    75.5261054900     0.0267705160     0.0002056295 24293.2737817899
   -0.9591836735     1.2841011890    73.5735785965    75.0864671615     0.0264048867     0.0002013720 24297.9949034477
   -0.9571428571     1.2769704845    73.1650193268    74.6587159765     0.0260699246     0.0001974360 24302.5419846009
   -0.9551020408     1.2700040004    72.7658691871    74.2419069061     0.0257617181     0.0001937834 24306.9306800944
   -0.9530612245     1.2631905710    72.3754884407    73.8352387024     0.0254774483     0.0001903839 24311.1747149105
   -0.9510204082     1.2565202341    71.9933062850    73.4380138361     0.0252149035     0.0001872124 24315.2860487586
   -0.9489795918     1.2499840563    71.6188108859    73.0495938846     0.0249718742     0.0001842461 24319.2751847088
   -0.9469387755     1.2435739909    71.2515411916    72.6693708661     0.0247457961     0.0001814625 24323.1513711572
   -0.9448979592     1.2372827589    70.8910801509    72.2968323743     0.0245350048     0.0001788445 24326.9228031490
   -0.9428571429     1.2311037506    70.5370490537    71.9315149099     0.0243380205     0.0001763769 24330.5968555051
   -0.9408163265     1.2250309424    70.1891027733    71.5729978717     0.0241535260     0.0001740463 24334.1801756522
   -0.9387755102     1.2190588266    69.8469257429    71.2209103955     0.0239805561     0.0001718419 24337.6786485696
   -0.9367346939     1.2131823517    69.5102285299    70.8749167094     0.0238183020     0.0001697540 24341.0975930288
   -0.9346938776     1.2073968710    69.1787449051    70.5346756082     0.0236654552     0.0001677718 24344.4418314760
   -0.9326530612     1.2016980990    68.8522293213    70.1998923447     0.0235211570     0.0001658867 24347.7157589141
   -0.9306122449     1.1960820730    68.5304547326    69.8702958684     0.0233846393     0.0001640912 24350.9233412765
   -0.9285714286     1.1905451201    68.2132107017    69.5456363422     0.0232552145     0.0001623784 24354.0683112154
   -0.9265306122     1.1850838286    67.9003017483    69.2257358689     0.0231331894     0.0001607460 24357.1539666022
   -0.9244897959     1.1796950225    67.5915459031    68.9103365475     0.0230172389     0.0001591853 24360.1834027151
   -0.9224489796     1.1743757395    67.2867734365    68.5992303205     0.0229066939     0.0001576906 24363.1594525614
   -0.9204081633     1.1691232113    66.9858257369    68.2922626847     0.0228016262     0.0001562595 24366.0846966909
   -0.9183673469     1.1639348463    66.6885543185    67.9892699654     0.0227017707     0.0001548883 24368.9615911668
   -0.9163265306     1.1588082142    66.3948199388    67.6900509328     0.0226060454     0.0001535705 24371.7923785443
   -0.9142857143     1.1537410325    66.1044918138    67.3945019719     0.0225149246     0.0001523059 24374.5791392048
   -0.9122448980     1.1487311539    65.8174469161    67.1024606267     0.0224277202     0.0001510897 24377.3237717112
   -0.9102040816     1.1437765557    65.5335693460    66.8137810647     0.0223439096     0.0001499182 24380.0280812590
   -0.9081632653     1.1388753294    65.2527497676    66.5283866810     0.0222640642     0.0001487919 24382.6937999590
   -0.9061224490     1.1340256726    64.9748848997    66.2460975681     0.0221868466     0.0001477039 24385.3224623401
   -0.9040816327     1.1292258803    64.6998770572    65.9668744857     0.0221132767     0.0001466571 24387.9155504993
   -0.9020408163     1.1244743380    64.4276337361    65.6905452176     0.0220419635     0.0001456444 24390.4744323662
   -0.9000000000     1.1197695150    64.1580672368    65.4170722620     0.0219737830     0.0001446683 24393.0004279877
   -0.8979591837     1.1151099586    63.8910943224    65.1463061509     0.0219075792     0.0001437228 24395.4947190130
   -0.8959183673     1.1104942885    63.6266359071    64.8782166589     0.0218442050     0.0001428105 24397.9584831884
   -0.8938775510     1.1059211919    63.3646167727    64.6126611723     0.0217824840     0.0001419256 24400.3927814776
   -0.8918367347     1.1013894190    63.1049653087    64.3496207769     0.0217233360     0.0001410709 24402.7986403584
   -0.8897959184     1.0968977787    62.8476132749    64.0889678200     0.0216657240     0.0001402413 24405.1770182673
   -0.8877551020     1.0924451350    62.5924955840    63.8306641448     0.0216101181     0.0001394380 24407.5288316444
   -0.8857142857     1.0880304035    62.3395501007    63.5746277098     0.0215561708     0.0001386588 24409.8549195487
   -0.8836734694     1.0836525480    62.0887174586    63.3207842862     0.0215036227     0.0001379020 24412.1561216613
   -0.8816326531     1.0793105778    61.8399408902    63.0691040578     0.0214529443     0.0001371688 24414.4331943032
   -0.8795918367     1.0750035447    61.5931660703    62.8194902571     0.0214033948     0.0001364556 24416.6868814704
   -0.8775510204     1.0707305406    61.3483409720    62.5719078939     0.0213552714     0.0001357630 24418.9178753329
   -0.8755102041     1.0664906953    61.1054157324    62.3263035018     0.0213085114     0.0001350901 24421.1268269650
   -0.8734693878     1.0622831742    60.8643425293    62.0826064924     0.0212627173     0.0001344350 24423.3143985086
   -0.8714285714     1.0581071761    60.6250754655    61.8407887046     0.0212181988     0.0001337982 24425.4811774447
   -0.8693877551     1.0539619319    60.3875704629    61.6007960735     0.0211747815     0.0001331788 24427.6277267997
   -0.8673469388     1.0498467020    60.1517851626    61.3625703100     0.0211321874     0.0001325750 24429.7545840908
   -0.8653061224     1.0457607758    59.9176788330    61.1260806057     0.0210905896     0.0001319871 24431.8622766530
   -0.8632653061     1.0417034691    59.6852122830    60.8912893902     0.0210500166     0.0001314150 24433.9513087046
   -0.8612244898     1.0376741234    59.4543477825    60.6581402346     0.0210101418     0.0001308568 24436.0221615461
   -0.8591836735     1.0336721045    59.2250489867    60.4265951753     0.0209709371     0.0001303122 24438.0752820898
   -0.8571428571     1.0296968008    58.9972808661    60.1966381506     0.0209327335     0.0001297820 24440.1111018078
   -0.8551020408     1.0257476230    58.7710096411    59.9682142442     0.0208951621     0.0001292646 24442.1300455073
   -0.8530612245     1.0218240020    58.5462027200    59.7412869651     0.0208581549     0.0001287593 24444.1325139847
   -0.8510204082     1.0179253889    58.3228286418    59.5158234604     0.0208216875     0.0001282657 24446.1188945240
   -0.8489795918     1.0140512533    58.1008570218    59.2918092205     0.0207860371     0.0001277846 24448.0895522447
   -0.8469387755     1.0102010827    57.8802585008    59.0691963647     0.0207508803     0.0001273146 24450.0448349488
   -0.8448979592     1.0063743820    57.6610046973    58.8479540181     0.0207161737     0.0001268550 24451.9850712401
   -0.8428571429     1.0025706719    57.4430681625    58.6280535390     0.0206818964     0.0001264057 24453.9105939362
   -0.8408163265     0.9987894889    57.2264223382    58.4094726894     0.0206481238     0.0001259667 24455.8217309860
   -0.8387755102     0.9950303845    57.0110415164    58.1921876160     0.0206148884     0.0001255379 24457.7187780124
   -0.8367346939     0.9912929239    56.7969008020    57.9761629003     0.0205820064     0.0001251183 24459.6020122758
   -0.8346938776     0.9875766864    56.5839760772    57.7613734045     0.0205494600     0.0001247077 24461.4717188350
   -0.8326530612     0.9838812640    56.3722439680    57.5477947622     0.0205172319     0.0001243058 24463.3281697299
   -0.8306122449     0.9802062611    56.1616818123    57.3354033464     0.0204853053     0.0001239124 24465.1716242462
   -0.8285714286     0.9765512941    55.9522676300    57.1241861833     0.0204538373     0.0001235278 24467.0023297909
   -0.8265306122     0.9729159908    55.7439800947    56.9141109590     0.0204226363     0.0001231512 24468.8205264645
   -0.8244897959     0.9692999900    55.5367985066    56.7051555140     0.0203916766     0.0001227822 24470.6264478454
   -0.8224489796     0.9657029407    55.3307027670    56.4972989272     0.0203609440     0.0001224207 24472.4203193236
   -0.8204081633     0.9621245024    55.1256733545    56.2905208785     0.0203304246     0.0001220664 24474.2023584143
   -0.8183673469     0.9585643440    54.9216913014    56.0848016251     0.0203001047     0.0001217192 24475.9727750875
   -0.8163265306     0.9550221437    54.7187381727    55.8801223828     0.0202699783     0.0001213789 24477.7317720799
   -0.8142857143     0.9514975886    54.5167960447    55.6764705807     0.0202401389     0.0001210456 24479.4795451910
   -0.8122448980     0.9479903746    54.3158474857    55.4738210645     0.0202104516     0.0001207188 24481.2162835642
   -0.8102040816     0.9445002057    54.1158755372    55.2721562159     0.0201809049     0.0001203983 24482.9421699534
   -0.8081632653     0.9410267938    53.9168636960    55.0714588915     0.0201514877     0.0001200839 24484.6573809971
   -0.8061224490     0.9375698586    53.7187958976    54.8717124061     0.0201221891     0.0001197753 24486.3620884816
   -0.8040816327     0.9341291270    53.5216564995    54.6729005157     0.0200929986     0.0001194726 24488.0564590393
   -0.8020408163     0.9307043332    53.3254302661    54.4750074013     0.0200639060     0.0001191755 24489.7406538294
   -0.8000000000     0.9272952180    53.1301023542    54.2780176547     0.0200349015     0.0001188838 24491.4148290136
   -0.7979591837     0.9239015290    52.9356582985    54.0819162630     0.0200059756     0.0001185975 24493.0791359427
   -0.7959183673     0.9205230201    52.7420839987    53.8866885956     0.0199771188     0.0001183164 24494.7337213342
   -0.7938775510     0.9171594514    52.5493657065    53.6923231931     0.0199483714     0.0001180405 24496.3787274414
   -0.7918367347     0.9138105888    52.3574900132    53.4988035816     0.0199196796     0.0001177696 24498.0142922155
   -0.7897959184     0.9104762040    52.1664438387    53.3061156577     0.0198910256     0.0001175035 24499.6405494594
   -0.7877551020     0.9071560743    51.9762144194    53.1142462075     0.0198624017     0.0001172420 24501.2576289753
   -0.7857142857     0.9038499823    51.7867892983    52.9231823379     0.0198338001     0.0001169851 24502.8656569762
   -0.7836734694     0.9005577156    51.5981563144    52.7329114659     0.0198052136     0.0001167326 24504.4647575185
   -0.7816326531     0.8972790671    51.4103035930    52.5434213084     0.0197766349     0.0001164844 24506.0550499737
   -0.7795918367     0.8940138344    51.2232195364    52.3546998723     0.0197480573     0.0001162405 24507.6366501232
   -0.7775510204     0.8907618196    51.0368928148    52.1667354452     0.0197194739     0.0001160007 24509.2096705512
   -0.7755102041     0.8875228296    50.8513123577    51.9795165868     0.0196908784     0.0001157649 24510.7742207513
   -0.7734693878     0.8842966755    50.6664673458    51.7930321196     0.0196622645     0.0001155330 24512.3304072277
   -0.7714285714     0.8810831728    50.4823472028    51.6072711215     0.0196336262     0.0001153050 24513.8783335939
   -0.7693877551     0.8778821410    50.2989415880    51.4222229172     0.0196049576     0.0001150807 24515.4181006652
   -0.7673469388     0.8746934035    50.1162403889    51.2378770706     0.0195762531     0.0001148601 24516.9498065492
   -0.7653061224     0.8715167878    49.9342337142    51.0542233779     0.0195475072     0.0001146431 24518.4735467316
   -0.7632653061     0.8683521249    49.7529118872    50.8712518603     0.0195187147     0.0001144295 24519.9894141590
   -0.7612244898     0.8651992496    49.5722654391    50.6889527569     0.0194898704     0.0001142194 24521.4974992532
   -0.7591836735     0.8620580001    49.3922851027    50.5073165187     0.0194609695     0.0001140126 24522.9978891492
   -0.7571428571     0.8589282182    49.2129618067    50.3263338020     0.0194320071     0.0001138090 24524.4906698971
   -0.7551020408     0.8558097488    49.0342866700    50.1459954627     0.0194029788     0.0001136086 24525.9759258168
   -0.7530612245     0.8527024401    48.8562509955    49.9662925498     0.0193738800     0.0001134114 24527.4537390621
   -0.7510204082     0.8496061434    48.6788462656    49.7872163007     0.0193447064     0.0001132172 24528.9241896861
   -0.7489795918     0.8465207132    48.5020641364    49.6087581349     0.0193154541     0.0001130259 24530.3873557030
   -0.7469387755     0.8434460067    48.3258964330    49.4309096493     0.0192861189     0.0001128376 24531.8433131486
   -0.7448979592     0.8403818842    48.1503351447    49.2536626131     0.0192566971     0.0001126521 24533.2921361374
   -0.7428571429     0.8373282086    47.9753724206    49.0770089630     0.0192271848     0.0001124694 24534.7338969190
   -0.7408163265     0.8342848456    47.8010005647    48.9009407981     0.0191975786     0.0001122895 24536.1686659308
   -0.7387755102     0.8312516635    47.6272120320    48.7254503760     0.0191678751     0.0001121122 24537.5965118504
   -0.7367346939     0.8282285332    47.4539994242    48.5505301081     0.0191380708     0.0001119375 24539.0175016448
   -0.7346938776     0.8252153280    47.2813554856    48.3761725553     0.0191081626     0.0001117654 24540.4317005983
   -0.7326530612     0.8222119238    47.1092730996    48.2023704244     0.0190781474     0.0001115958 24541.8391723067
   -0.7306122449     0.8192181987    46.9377452847    48.0291165636     0.0190480222     0.0001114286 24543.2399788884
   -0.7285714286     0.8162340331    46.7667651908    47.8564039591     0.0190177842     0.0001112639 24544.6341810695
   -0.7265306122     0.8132593097    46.5963260961    47.6842257312     0.0189874306     0.0001111015 24546.0218382204
   -0.7244897959     0.8102939134    46.4264214035    47.5125751312     0.0189569587     0.0001109414 24547.4030083921
   -0.7224489796     0.8073377312    46.2570446372    47.3414455373     0.0189263661     0.0001107835 24548.7777483503
   -0.7204081633     0.8043906520    46.0881894401    47.1708317050     0.0188956721     0.0001106280 24550.1461136095
   -0.7183673469     0.8014525670    45.9198495701    47.0007264916     0.0188648611     0.0001104747 24551.5081584652
   -0.7163265306     0.7985233692    45.7520188977    46.8311231757     0.0188339226     0.0001103235 24552.8639360252
   -0.7142857143     0.7956029535    45.5846914028    46.6620156099     0.0188028545     0.0001101743 24554.2134982400
   -0.7122448980     0.7926912167    45.4178611722    46.4933977584     0.0187716547     0.0001100273 24555.5568959320
   -0.7102040816     0.7897880574    45.2515223968    46.3252636947     0.0187403210     0.0001098822 24556.8941788239
   -0.7081632653     0.7868933760    45.0856693690    46.1576075985     0.0187088515     0.0001097391 24558.2253955662
   -0.7061224490     0.7840070746    44.9202964804    45.9904237533     0.0186772443     0.0001095979 24559.5505937638
   -0.7040816327     0.7811290570    44.7553982192    45.8237065436     0.0186454977     0.0001094586 24560.8698200014
   -0.7020408163     0.7782592286    44.5909691678    45.6574504527     0.0186136098     0.0001093212 24562.1831198688
   -0.7000000000     0.7753974966    44.4270040008    45.4916500601     0.0185815791     0.0001091855 24563.4905379846
   -0.6979591837     0.7725437695    44.2634974825    45.3263000393     0.0185494039     0.0001090517 24564.7921180199
