shape model output for Neptune's 1-bar isobaric surface. models are described in Mankovich et al. 2026, PSJ.
the models summarized in this file assume the symmetric H-band 2014 wind profile from Tollefson et al. (2018, Icarus 311) Table 1.
the distribution of models in this file comes from Markov chain Monte Carlo fits to the Voyager 2 radio occultation reported in Lindal (1992, AJ 103).
these solutions vary the polar radius to fit the Voyager 2 radio occultation to a Gaussian with standard deviation 5 km.
the wind fit polynomial coefficients are also allowed to vary within their Gaussian uncertainties following T18 Table 1.
this model has wind polynomial cofficients a, b, c:    -3.026489e+02    2.515236e-01   -1.185159e-05
mu=sin(phi), phi [radians], and lat_deg [degrees] refer to planetocentric latitude; lat_pg_deg gives planetographic latitude in degrees.
              mu          phi_rad          lat_deg       lat_pg_deg          psi_rad    omega_rad_s-1             r_km 
   -1.0000000000     1.5707963268    90.0000000000    90.0000000000     0.0000000000     0.0003304972 24055.4837267943
   -0.9998144712     1.5515331758    88.8963027451    89.1558865019     0.0045305912     0.0003300265 24056.5349507264
   -0.9996289425     1.5435536961    88.4391122386    88.8051808374     0.0063891023     0.0003295437 24057.5833142525
   -0.9994434137     1.5374305386    88.0882811581    88.5353562782     0.0078029329     0.0003290627 24058.6288151579
   -0.9992578850     1.5322682374    87.7925030866    88.3072853259     0.0089846450     0.0003285830 24059.6714638929
   -0.9990723562     1.5277199472    87.5319052508    88.1058235505     0.0100167640     0.0003281032 24060.7112686258
   -0.9988868275     1.5236077873    87.2962958471    87.9232242249     0.0109419644     0.0003276264 24061.7482354707
   -0.9987012987     1.5198260904    87.0796205724    87.7548592589     0.0117851383     0.0003271459 24062.7823705571
   -0.9985157699     1.5163060092    86.8779347757    87.5977516460     0.0125631744     0.0003266673 24063.8136801459
   -0.9983302412     1.5129997231    86.6884985354    87.4498194026     0.0132875558     0.0003261897 24064.8421693740
   -0.9981447124     1.5098724146    86.5093169626    87.3095489253     0.0139666825     0.0003257129 24065.8678448384
   -0.9979591837     1.5068978001    86.3388841007    87.1757995321     0.0146069298     0.0003252369 24066.8907136913
   -0.9959183673     1.4804147767    84.8215186329    85.9686780062     0.0200217081     0.0003200365 24077.9589339788
   -0.9938775510     1.4600831244    83.6566007642    85.0181635017     0.0237637527     0.0003149042 24088.6968080413
   -0.9918367347     1.4429339318    82.6740244067    84.1974436376     0.0265886815     0.0003098398 24099.1126552288
   -0.9897959184     1.4278174270    81.8079124837    83.4581006061     0.0288012160     0.0003048430 24109.2146554719
   -0.9877551020     1.4141440401    81.0244851196    82.7756894753     0.0305642819     0.0002999150 24119.0109635322
   -0.9857142857     1.4015635991    80.3036789465    82.1358694519     0.0319777568     0.0002950522 24128.5095048571
   -0.9836734694     1.3898479862    79.6324237728    81.5294670659     0.0331096515     0.0002902543 24137.7182630758
   -0.9816326531     1.3788387766    79.0016425268    80.9502606468     0.0340098021     0.0002855242 24146.6448752055
   -0.9795918367     1.3684206412    78.4047273409    80.3937032219     0.0347141779     0.0002808566 24155.2970269198
   -0.9775510204     1.3585065303    77.8366906282    79.8565162808     0.0352526080     0.0002762545 24163.6822654273
   -0.9755102041     1.3490288258    77.2936581616    79.3361439365     0.0356481017     0.0002717164 24171.8079761613
   -0.9734693878     1.3399337634    76.7725494708    78.8305995104     0.0359197494     0.0002672415 24179.6814483570
   -0.9714285714     1.3311777582    76.2708673246    78.3383071937     0.0360836328     0.0002628298 24187.3098216352
   -0.9693877551     1.3227248956    75.7865539757    77.8579880091     0.0361533441     0.0002584809 24194.7000880895
   -0.9673469388     1.3145451659    75.3178899826    77.3885466380     0.0361397763     0.0002541916 24201.8591820502
   -0.9653061224     1.3066131882    74.8634211408    76.9206109996     0.0359047364     0.0002494094 24208.7878037079
   -0.9632653061     1.2989072697    74.4219045316    76.4465616638     0.0353369332     0.0002437022 24215.4360961558
   -0.9612244898     1.2914086960    73.9922679079    75.9869759639     0.0348142232     0.0002384469 24221.8082164554
   -0.9591836735     1.2841011890    73.5735785965    75.5408292229     0.0343350006     0.0002336020 24227.9309371212
   -0.9571428571     1.2769704845    73.1650193268    75.1068620340     0.0338915488     0.0002291092 24233.8271154946
   -0.9551020408     1.2700040004    72.7658691871    74.6840969742     0.0334793907     0.0002249273 24239.5165296434
   -0.9530612245     1.2631905710    72.3754884407    74.2717118461     0.0330953418     0.0002210233 24245.0164551863
   -0.9510204082     1.2565202341    71.9933062850    73.8689937727     0.0327369224     0.0002173701 24250.3421068420
   -0.9489795918     1.2499840563    71.6188108859    73.4752865582     0.0324016130     0.0002139430 24255.5067763870
   -0.9469387755     1.2435739909    71.2515411916    73.0899572265     0.0320864128     0.0002107174 24260.5221599655
   -0.9448979592     1.2372827589    70.8910801509    72.7124794504     0.0317894148     0.0002076748 24265.3988035942
   -0.9428571429     1.2311037506    70.5370490537    72.3423770024     0.0315089168     0.0002047986 24270.1461094073
   -0.9408163265     1.2250309424    70.1891027733    71.9792176661     0.0312433989     0.0002020743 24274.7724728654
   -0.9387755102     1.2190588266    69.8469257429    71.6226230922     0.0309917653     0.0001994900 24279.2854937057
   -0.9367346939     1.2131823517    69.5102285299    71.2722514796     0.0307531020     0.0001970352 24283.6920387004
   -0.9346938776     1.2073968710    69.1787449051    70.9277474671     0.0305258533     0.0001946980 24287.9982943198
   -0.9326530612     1.2016980990    68.8522293213    70.5888080825     0.0303090171     0.0001924691 24292.2099822808
   -0.9306122449     1.1960820730    68.5304547326    70.2551548050     0.0301016949     0.0001903403 24296.3322280836
   -0.9285714286     1.1905451201    68.2132107017    69.9265310381     0.0299030810     0.0001883039 24300.3699051186
   -0.9265306122     1.1850838286    67.9003017483    69.6027666433     0.0297136178     0.0001863575 24304.3272334579
   -0.9244897959     1.1796950225    67.5915459031    69.2835866750     0.0295316825     0.0001844915 24308.2083364729
   -0.9224489796     1.1743757395    67.2867734365    68.9687754239     0.0293564727     0.0001826997 24312.0168384213
   -0.9204081633     1.1691232113    66.9858257369    68.6581817129     0.0291881180     0.0001809793 24315.7562201159
   -0.9183673469     1.1639348463    66.6885543185    68.3516398973     0.0290263191     0.0001793265 24319.4296109687
   -0.9163265306     1.1588082142    66.3948199388    68.0489340285     0.0288697371     0.0001777339 24323.0399697728
   -0.9142857143     1.1537410325    66.1044918138    67.7499693897     0.0287190015     0.0001762013 24326.5900712550
   -0.9122448980     1.1487311539    65.8174469161    67.4545744618     0.0285732659     0.0001747235 24330.0824228963
   -0.9102040816     1.1437765557    65.5335693460    67.1625966430     0.0284318899     0.0001732963 24333.5194107903
   -0.9081632653     1.1388753294    65.2527497676    66.8739694280     0.0282956210     0.0001719205 24336.9033222656
   -0.9061224490     1.1340256726    64.9748848997    66.5884932005     0.0281627777     0.0001705882 24340.2361747696
   -0.9040816327     1.1292258803    64.6998770572    66.3061456440     0.0280346755     0.0001693027 24343.5199521052
   -0.9020408163     1.1244743380    64.4276337361    66.0267336877     0.0279095592     0.0001680561 24346.7565173337
   -0.9000000000     1.1197695150    64.1580672368    65.7502343979     0.0277885592     0.0001668512 24349.9475325680
   -0.8979591837     1.1151099586    63.8910943224    65.4764808655     0.0276702151     0.0001656814 24353.0947122224
   -0.8959183673     1.1104942885    63.6266359071    65.2054570283     0.0275556269     0.0001645495 24356.1995562056
   -0.8938775510     1.1059211919    63.3646167727    64.9370022333     0.0274433034     0.0001634490 24359.2634705802
   -0.8918367347     1.1013894190    63.1049653087    64.6711127946     0.0273344302     0.0001623832 24362.2878869131
   -0.8897959184     1.0968977787    62.8476132749    64.4076450184     0.0272276904     0.0001613463 24365.2740516006
   -0.8877551020     1.0924451350    62.5924955840    64.1465687610     0.0271236938     0.0001603396 24368.2232198716
   -0.8857142857     1.0880304035    62.3395501007    63.8877968382     0.0270220032     0.0001593607 24371.1365805267
   -0.8836734694     1.0836525480    62.0887174586    63.6312512238     0.0269222930     0.0001584077 24374.0151894457
   -0.8816326531     1.0793105778    61.8399408902    63.3769100877     0.0268251730     0.0001574819 24376.8600978728
   -0.8795918367     1.0750035447    61.5931660703    63.1246649842     0.0267296985     0.0001565793 24379.6723439976
   -0.8775510204     1.0707305406    61.3483409720    62.8744860604     0.0266362567     0.0001557006 24382.4528220426
   -0.8755102041     1.0664906953    61.1054157324    62.6263191155     0.0265447716     0.0001548448 24385.2024878964
   -0.8734693878     1.0622831742    60.8643425293    62.3800872947     0.0264547368     0.0001540096 24387.9221610996
   -0.8714285714     1.0581071761    60.6250754655    62.1357677683     0.0263665547     0.0001531959 24390.6126947154
   -0.8693877551     1.0539619319    60.3875704629    61.8933038166     0.0262800047     0.0001524022 24393.2748565730
   -0.8673469388     1.0498467020    60.1517851626    61.6526327434     0.0261947319     0.0001516269 24395.9093907604
   -0.8653061224     1.0457607758    59.9176788330    61.4137267950     0.0261109627     0.0001508703 24398.5170447585
   -0.8632653061     1.0417034691    59.6852122830    61.1765490360     0.0260287366     0.0001501320 24401.0984554646
   -0.8612244898     1.0376741234    59.4543477825    60.9410377443     0.0259476348     0.0001494102 24403.6543279424
   -0.8591836735     1.0336721045    59.2250489867    60.7071546020     0.0258676228     0.0001487042 24406.1852630610
   -0.8571428571     1.0296968008    58.9972808661    60.4748892467     0.0257891313     0.0001480153 24408.6918646034
   -0.8551020408     1.0257476230    58.7710096411    60.2441806647     0.0257116848     0.0001473413 24411.1747228044
   -0.8530612245     1.0218240020    58.5462027200    60.0149913067     0.0256351969     0.0001466817 24413.6343904961
   -0.8510204082     1.0179253889    58.3228286418    59.7872879863     0.0255596373     0.0001460359 24416.0713862015
   -0.8489795918     1.0140512533    58.1008570218    59.5610610075     0.0254853673     0.0001454049 24418.4862420512
   -0.8469387755     1.0102010827    57.8802585008    59.3362570539     0.0254119687     0.0001447869 24420.8794455871
   -0.8448979592     1.0063743820    57.6610046973    59.1128445649     0.0253393859     0.0001441815 24423.2514626052
   -0.8428571429     1.0025706719    57.4430681625    58.8907945903     0.0252675928     0.0001435882 24425.6027379217
   -0.8408163265     0.9987894889    57.2264223382    58.6700862450     0.0251966885     0.0001430072 24427.9337181234
   -0.8387755102     0.9950303845    57.0110415164    58.4506962926     0.0251267159     0.0001424383 24430.2448357498
   -0.8367346939     0.9912929239    56.7969008020    58.2325861749     0.0250574368     0.0001418804 24432.5364979137
   -0.8346938776     0.9875766864    56.5839760772    58.0157304730     0.0249888283     0.0001413333 24434.8091006756
   -0.8326530612     0.9838812640    56.3722439680    57.8001045427     0.0249208683     0.0001407965 24437.0630216509
   -0.8306122449     0.9802062611    56.1616818123    57.5856844823     0.0248535351     0.0001402699 24439.2986204684
   -0.8285714286     0.9765512941    55.9522676300    57.3724601110     0.0247870348     0.0001397540 24441.5162490595
   -0.8265306122     0.9729159908    55.7439800947    57.1603957609     0.0247211170     0.0001392475 24443.7162582569
   -0.8244897959     0.9692999900    55.5367985066    56.9494688314     0.0246557484     0.0001387504 24445.8989759068
   -0.8224489796     0.9657029407    55.3307027670    56.7396581520     0.0245909105     0.0001382622 24448.0647134233
   -0.8204081633     0.9621245024    55.1256733545    56.5309431583     0.0245265850     0.0001377827 24450.2137857005
   -0.8183673469     0.9585643440    54.9216913014    56.3233038660     0.0244627541     0.0001373118 24452.3464826943
   -0.8163265306     0.9550221437    54.7187381727    56.1167213801     0.0243994099     0.0001368492 24454.4630903262
   -0.8142857143     0.9514975886    54.5167960447    55.9111848166     0.0243366751     0.0001363952 24456.5638986319
   -0.8122448980     0.9479903746    54.3158474857    55.7066665926     0.0242743727     0.0001359491 24458.6491870042
   -0.8102040816     0.9445002057    54.1158755372    55.5031488721     0.0242124873     0.0001355105 24460.7192185895
   -0.8081632653     0.9410267938    53.9168636960    55.3006142979     0.0241510040     0.0001350794 24462.7742467000
   -0.8061224490     0.9375698586    53.7187958976    55.0990459733     0.0240899083     0.0001346555 24464.8145086739
   -0.8040816327     0.9341291270    53.5216564995    54.8984274473     0.0240291861     0.0001342386 24466.8402392282
   -0.8020408163     0.9307043332    53.3254302661    54.6987426989     0.0239688236     0.0001338286 24468.8516741056
   -0.8000000000     0.9272952180    53.1301023542    54.4999761209     0.0239088076     0.0001334253 24470.8490404450
   -0.7979591837     0.9239015290    52.9356582985    54.3021125058     0.0238491250     0.0001330286 24472.8325630556
   -0.7959183673     0.9205230201    52.7420839987    54.1051370312     0.0237897633     0.0001326382 24474.8024527333
   -0.7938775510     0.9171594514    52.5493657065    53.9090389640     0.0237307751     0.0001322543 24476.7589167230
   -0.7918367347     0.9138105888    52.3574900132    53.7138008143     0.0236720892     0.0001318765 24478.7021579256
   -0.7897959184     0.9104762040    52.1664438387    53.5194081211     0.0236136814     0.0001315046 24480.6323704472
   -0.7877551020     0.9071560743    51.9762144194    53.3258474972     0.0235555409     0.0001311385 24482.5497399317
   -0.7857142857     0.9038499823    51.7867892983    53.1331058795     0.0234976571     0.0001307779 24484.4544470709
   -0.7836734694     0.9005577156    51.5981563144    52.9411705192     0.0234400198     0.0001304229 24486.3466789940
   -0.7816326531     0.8972790671    51.4103035930    52.7500289690     0.0233826189     0.0001300733 24488.2266024579
   -0.7795918367     0.8940138344    51.2232195364    52.5596690756     0.0233254447     0.0001297289 24490.0943841897
   -0.7775510204     0.8907618196    51.0368928148    52.3700789701     0.0232684880     0.0001293896 24491.9501943354
   -0.7755102041     0.8875228296    50.8513123577    52.1812470593     0.0232117394     0.0001290554 24493.7942055520
   -0.7734693878     0.8842966755    50.6664673458    51.9931620152     0.0231551901     0.0001287260 24495.6265765870
   -0.7714285714     0.8810831728    50.4823472028    51.8058127666     0.0230988316     0.0001284014 24497.4474518124
   -0.7693877551     0.8778821410    50.2989415880    51.6191884926     0.0230426554     0.0001280816 24499.2569768153
   -0.7673469388     0.8746934035    50.1162403889    51.4332786153     0.0229866534     0.0001277663 24501.0552989853
   -0.7653061224     0.8715167878    49.9342337142    51.2480727916     0.0229308177     0.0001274555 24502.8425635417
   -0.7632653061     0.8683521249    49.7529118872    51.0635609057     0.0228751407     0.0001271490 24504.6189075973
   -0.7612244898     0.8651992496    49.5722654391    50.8797330631     0.0228196149     0.0001268469 24506.3844685268
   -0.7591836735     0.8620580001    49.3922851027    50.6965795832     0.0227642331     0.0001265490 24508.1393781212
   -0.7571428571     0.8589282182    49.2129618067    50.5140909931     0.0227089883     0.0001262552 24509.8837625396
   -0.7551020408     0.8558097488    49.0342866700    50.3322580218     0.0226538737     0.0001259654 24511.6177424939
   -0.7530612245     0.8527024401    48.8562509955    50.1510715943     0.0225988827     0.0001256795 24513.3414392957
   -0.7510204082     0.8496061434    48.6788462656    49.9705228266     0.0225440089     0.0001253975 24515.0549765800
   -0.7489795918     0.8465207132    48.5020641364    49.7906030188     0.0224892460     0.0001251193 24516.7584693714
   -0.7469387755     0.8434460067    48.3258964330    49.6113036509     0.0224345882     0.0001248448 24518.4520311736
   -0.7448979592     0.8403818842    48.1503351447    49.4326163774     0.0223800294     0.0001245740 24520.1357740926
   -0.7428571429     0.8373282086    47.9753724206    49.2545330224     0.0223255642     0.0001243066 24521.8098088381
   -0.7408163265     0.8342848456    47.8010005647    49.0770455750     0.0222711868     0.0001240428 24523.4742416395
   -0.7387755102     0.8312516635    47.6272120320    48.9001461842     0.0222168921     0.0001237824 24525.1291746908
   -0.7367346939     0.8282285332    47.4539994242    48.7238271550     0.0221626748     0.0001235253 24526.7747089262
   -0.7346938776     0.8252153280    47.2813554856    48.5480809442     0.0221085300     0.0001232715 24528.4109433994
   -0.7326530612     0.8222119238    47.1092730996    48.3729001563     0.0220544527     0.0001230209 24530.0379753333
   -0.7306122449     0.8192181987    46.9377452847    48.1982775391     0.0220004382     0.0001227735 24531.6559001681
   -0.7285714286     0.8162340331    46.7667651908    48.0242059804     0.0219464819     0.0001225292 24533.2648116081
   -0.7265306122     0.8132593097    46.5963260961    47.8506785041     0.0218925795     0.0001222879 24534.8648016659
   -0.7244897959     0.8102939134    46.4264214035    47.6776882665     0.0218387266     0.0001220496 24536.4559600382
   -0.7224489796     0.8073377312    46.2570446372    47.5052285525     0.0217849190     0.0001218142 24538.0383720942
   -0.7204081633     0.8043906520    46.0881894401    47.3332944917     0.0217311827     0.0001215818 24539.6121219488
   -0.7183673469     0.8014525670    45.9198495701    47.1618785714     0.0216774955     0.0001213522 24541.1772923688
   -0.7163265306     0.7985233692    45.7520188977    46.9909738115     0.0216238425     0.0001211255 24542.7339647365
   -0.7142857143     0.7956029535    45.5846914028    46.8205739769     0.0215702201     0.0001209014 24544.2822190840
   -0.7122448980     0.7926912167    45.4178611722    46.6506729461     0.0215166245     0.0001206800 24545.8221341258
   -0.7102040816     0.7897880574    45.2515223968    46.4812647080     0.0214630523     0.0001204612 24547.3537872903
   -0.7081632653     0.7868933760    45.0856693690    46.3123433596     0.0214095000     0.0001202450 24548.8772547510
   -0.7061224490     0.7840070746    44.9202964804    46.1439031030     0.0213559643     0.0001200313 24550.3926114562
   -0.7040816327     0.7811290570    44.7553982192    45.9759382430     0.0213024421     0.0001198201 24551.8999306209
   -0.7020408163     0.7782592286    44.5909691678    45.8084431839     0.0212489301     0.0001196113 24553.3992813953
   -0.7000000000     0.7753974966    44.4270040008    45.6414124281     0.0211954255     0.0001194049 24554.8907326882
   -0.6979591837     0.7725437695    44.2634974825    45.4748405731     0.0211419253     0.0001192009 24556.3743523915
