shape model output for Neptune's 1-bar isobaric surface. models are described in Mankovich et al. 2026, PSJ.
the models summarized in this file assume the symmetric H-band 2014 wind profile from Tollefson et al. (2018, Icarus 311) Table 1.
the distribution of models in this file comes from Markov chain Monte Carlo fits to the Voyager 2 radio occultation reported in Lindal (1992, AJ 103).
these solutions vary the polar radius to fit the Voyager 2 radio occultation to a Gaussian with standard deviation 5 km.
the wind fit polynomial coefficients are also allowed to vary within their Gaussian uncertainties following T18 Table 1.
this model has wind polynomial cofficients a, b, c:    -2.725595e+02    1.856003e-01    6.363377e-06
mu=sin(phi), phi [radians], and lat_deg [degrees] refer to planetocentric latitude; lat_pg_deg gives planetographic latitude in degrees.
              mu          phi_rad          lat_deg       lat_pg_deg          psi_rad    omega_rad_s-1             r_km 
   -1.0000000000     1.5707963268    90.0000000000    90.0000000000     0.0000000000     0.0003520186 24026.0116284553
   -0.9998144712     1.5515331758    88.8963027451    89.1881571311     0.0050938200     0.0003515024 24027.1921355485
   -0.9996289425     1.5435536961    88.4391122386    88.8506589910     0.0071828459     0.0003509728 24028.3693481515
   -0.9994434137     1.5374305386    88.0882811581    88.5908611303     0.0087716753     0.0003504452 24029.5432669346
   -0.9992578850     1.5322682374    87.7925030866    88.3711533402     0.0100993521     0.0003499190 24030.7139067261
   -0.9990723562     1.5277199472    87.5319052508    88.1769805356     0.0112586876     0.0003493927 24031.8812787795
   -0.9988868275     1.5236077873    87.2962958471    88.0009014576     0.0122976878     0.0003488697 24033.0453915157
   -0.9987012987     1.5198260904    87.0796205724    87.8384651233     0.0132443359     0.0003483427 24034.2062544318
   -0.9985157699     1.5163060092    86.8779347757    87.6868161848     0.0141176438     0.0003478177 24035.3638693607
   -0.9983302412     1.5129997231    86.6884985354    87.5439548146     0.0149305287     0.0003472939 24036.5182387814
   -0.9981447124     1.5098724146    86.5093169626    87.4084275796     0.0156924406     0.0003467709 24037.6693685680
   -0.9979591837     1.5068978001    86.3388841007    87.2791395279     0.0164105530     0.0003462487 24038.8172661983
   -0.9959183673     1.4804147767    84.8215186329    86.1092265488     0.0224747429     0.0003405445 24051.2330985826
   -0.9938775510     1.4600831244    83.6566007642    85.1836247875     0.0266515970     0.0003349151 24063.2687840382
   -0.9918367347     1.4429339318    82.6740244067    84.3810008124     0.0297923585     0.0003293601 24074.9337476848
   -0.9897959184     1.4278174270    81.8079124837    83.6551667011     0.0322406682     0.0003238793 24086.2373592389
   -0.9877551020     1.4141440401    81.0244851196    82.9828814373     0.0341804638     0.0003184738 24097.1888339207
   -0.9857142857     1.4015635991    80.3036789465    82.3505477658     0.0357246003     0.0003131400 24107.7973564030
   -0.9836734694     1.3898479862    79.6324237728    81.7495040109     0.0369500207     0.0003078772 24118.0719622543
   -0.9816326531     1.3788387766    79.0016425268    81.1739084317     0.0379131923     0.0003026890 24128.0215838906
   -0.9795918367     1.3684206412    78.4047273409    80.6194881257     0.0386548678     0.0002975691 24137.6550840871
   -0.9775510204     1.3585065303    77.8366906282    80.0831966593     0.0392089269     0.0002925213 24146.9811307158
   -0.9755102041     1.3490288258    77.2936581616    79.5626573247     0.0396015061     0.0002875435 24156.0082847253
   -0.9734693878     1.3399337634    76.7725494708    79.0560335936     0.0398543164     0.0002826351 24164.7448949419
   -0.9714285714     1.3311777582    76.2708673246    78.5618773252     0.0399856677     0.0002777960 24173.1993738728
   -0.9693877551     1.3227248956    75.7865539757    78.0790180810     0.0400110466     0.0002730258 24181.3797421879
   -0.9673469388     1.3145451659    75.3178899826    77.6064473040     0.0399428604     0.0002683211 24189.2940587763
   -0.9653061224     1.3066131882    74.8634211408    77.1331579431     0.0396143804     0.0002630522 24196.9429485540
   -0.9632653061     1.2989072697    74.4219045316    76.6501398598     0.0388900430     0.0002567206 24204.2661680101
   -0.9612244898     1.2914086960    73.9922679079    76.1822715666     0.0382227745     0.0002508921 24211.2679388851
   -0.9591836735     1.2841011890    73.5735785965    75.7284853861     0.0376102186     0.0002455205 24217.9800546703
   -0.9571428571     1.2769704845    73.1650193268    75.2874219999     0.0370429147     0.0002405409 24224.4293627725
   -0.9551020408     1.2700040004    72.7658691871    74.8580401847     0.0365152724     0.0002359072 24230.6393378865
   -0.9530612245     1.2631905710    72.3754884407    74.4394694717     0.0360232647     0.0002315828 24236.6302363077
   -0.9510204082     1.2565202341    71.9933062850    74.0309578599     0.0355637290     0.0002275375 24242.4198129447
   -0.9489795918     1.2499840563    71.6188108859    73.6318116281     0.0351334908     0.0002237435 24248.0237629770
   -0.9469387755     1.2435739909    71.2515411916    73.2413574298     0.0347288449     0.0002201738 24253.4558208807
   -0.9448979592     1.2372827589    70.8910801509    72.8590405300     0.0343473882     0.0002168075 24258.7282799066
   -0.9428571429     1.2311037506    70.5370490537    72.4843594716     0.0339869784     0.0002136262 24263.8520981605
   -0.9408163265     1.2250309424    70.1891027733    72.1168596255     0.0336457042     0.0002106139 24268.8372449435
   -0.9387755102     1.2190588266    69.8469257429    71.7561450420     0.0333221629     0.0002077571 24273.6924884820
   -0.9367346939     1.2131823517    69.5102285299    71.4018587937     0.0330151763     0.0002050442 24278.4259415469
   -0.9346938776     1.2073968710    69.1787449051    71.0536251654     0.0327228336     0.0002024620 24283.0448086711
   -0.9326530612     1.2016980990    68.8522293213    70.7111265874     0.0324438777     0.0002000002 24287.5557206569
   -0.9306122449     1.1960820730    68.5304547326    70.3740714535     0.0321771819     0.0001976494 24291.9646853167
   -0.9285714286     1.1905451201    68.2132107017    70.0421913787     0.0319217348     0.0001954014 24296.2772278455
   -0.9265306122     1.1850838286    67.9003017483    69.7153160703     0.0316779759     0.0001932533 24300.4984350467
   -0.9244897959     1.1796950225    67.5915459031    69.3931522030     0.0314439618     0.0001911945 24304.6329880150
   -0.9224489796     1.1743757395    67.2867734365    69.0754735089     0.0312187056     0.0001892180 24308.6852077471
   -0.9204081633     1.1691232113    66.9858257369    68.7621267559     0.0310023013     0.0001873208 24312.6590341687
   -0.9183673469     1.1639348463    66.6885543185    68.4529406695     0.0307943511     0.0001854987 24316.5581473991
   -0.9163265306     1.1588082142    66.3948199388    68.1476848464     0.0305932640     0.0001837433 24320.3859648837
   -0.9142857143     1.1537410325    66.1044918138    67.8462675190     0.0303997209     0.0001820545 24324.1456450403
   -0.9122448980     1.1487311539    65.8174469161    67.5485074527     0.0302127059     0.0001804265 24327.8401465651
   -0.9102040816     1.1437765557    65.5335693460    67.2542443603     0.0300314444     0.0001788547 24331.4722573694
   -0.9081632653     1.1388753294    65.2527497676    66.9634160658     0.0298567593     0.0001773397 24335.0444692575
   -0.9061224490     1.1340256726    64.9748848997    66.6758067191     0.0296866861     0.0001758731 24338.5593143879
   -0.9040816327     1.1292258803    64.6998770572    66.3914033758     0.0295227036     0.0001744583 24342.0189417463
   -0.9020408163     1.1244743380    64.4276337361    66.1099964469     0.0293627685     0.0001730868 24345.4255542711
   -0.9000000000     1.1197695150    64.1580672368    65.8315709602     0.0292081500     0.0001717613 24348.7811031023
   -0.8979591837     1.1151099586    63.8910943224    65.5559462853     0.0290571483     0.0001704748 24352.0874856540
   -0.8959183673     1.1104942885    63.6266359071    65.2831141539     0.0289109994     0.0001692303 24355.3464449923
   -0.8938775510     1.1059211919    63.3646167727    65.0129002391     0.0287679735     0.0001680206 24358.5596507125
   -0.8918367347     1.1013894190    63.1049653087    64.7453094151     0.0286294055     0.0001668492 24361.7286735574
   -0.8897959184     1.0968977787    62.8476132749    64.4801859988     0.0284937693     0.0001657100 24364.8550326274
   -0.8877551020     1.0924451350    62.5924955840    64.2175037560     0.0283617430     0.0001646042 24367.9401370175
   -0.8857142857     1.0880304035    62.3395501007    63.9571708815     0.0282328087     0.0001635291 24370.9852607078
   -0.8836734694     1.0836525480    62.0887174586    63.6991057559     0.0281065780     0.0001624827 24373.9917152876
   -0.8816326531     1.0793105778    61.8399408902    63.4432905435     0.0279837305     0.0001614665 24376.9607176985
   -0.8795918367     1.0750035447    61.5931660703    63.1896083009     0.0278631732     0.0001604759 24379.8933817644
   -0.8775510204     1.0707305406    61.3483409720    62.9380314661     0.0277453332     0.0001595117 24382.7908104587
   -0.8755102041     1.0664906953    61.1054157324    62.6885044194     0.0276301099     0.0001585729 24385.6540176857
   -0.8734693878     1.0622831742    60.8643425293    62.4409455417     0.0275169136     0.0001576569 24388.4840111645
   -0.8714285714     1.0581071761    60.6250754655    62.1953344717     0.0274061898     0.0001567646 24391.2817325479
   -0.8693877551     1.0539619319    60.3875704629    61.9516120559     0.0272976754     0.0001558946 24394.0480583655
   -0.8673469388     1.0498467020    60.1517851626    61.7097121724     0.0271909558     0.0001550448 24396.7838666622
   -0.8653061224     1.0457607758    59.9176788330    61.4696082169     0.0270862775     0.0001542157 24399.4899603734
   -0.8632653061     1.0417034691    59.6852122830    61.2312629634     0.0269836748     0.0001534068 24402.1671183863
   -0.8612244898     1.0376741234    59.4543477825    60.9946108690     0.0268826622     0.0001526162 24404.8160892642
   -0.8591836735     1.0336721045    59.2250489867    60.7596128260     0.0267831916     0.0001518431 24407.4375799452
   -0.8571428571     1.0296968008    58.9972808661    60.5262612606     0.0266857421     0.0001510888 24410.0322948965
   -0.8551020408     1.0257476230    58.7710096411    60.2944910074     0.0265897659     0.0001503510 24412.6008838472
   -0.8530612245     1.0218240020    58.5462027200    60.0642633925     0.0264951570     0.0001496290 24415.1439860393
   -0.8510204082     1.0179253889    58.3228286418    59.8355445584     0.0264018734     0.0001489224 24417.6622151426
   -0.8489795918     1.0140512533    58.1008570218    59.6083270960     0.0263103162     0.0001482321 24420.1561454842
   -0.8469387755     1.0102010827    57.8802585008    59.3825541045     0.0262200046     0.0001475562 24422.6263209655
   -0.8448979592     1.0063743820    57.6610046973    59.1581932133     0.0261308691     0.0001468941 24425.0732876417
   -0.8428571429     1.0025706719    57.4430681625    58.9352149002     0.0260428735     0.0001462455 24427.4975768891
   -0.8408163265     0.9987894889    57.2264223382    58.7135986474     0.0259561232     0.0001456103 24429.8996884271
   -0.8387755102     0.9950303845    57.0110415164    58.4933211715     0.0258706604     0.0001449886 24432.2800849256
   -0.8367346939     0.9912929239    56.7969008020    58.2743418016     0.0257862099     0.0001443790 24434.6392248283
   -0.8346938776     0.9875766864    56.5839760772    58.0566346253     0.0257027404     0.0001437813 24436.9775524130
   -0.8326530612     0.9838812640    56.3722439680    57.8401745242     0.0256202214     0.0001431950 24439.2955171247
   -0.8306122449     0.9802062611    56.1616818123    57.6249371361     0.0255386232     0.0001426199 24441.5935348563
   -0.8285714286     0.9765512941    55.9522676300    57.4109134824     0.0254581727     0.0001420566 24443.8720075802
   -0.8265306122     0.9729159908    55.7439800947    57.1980657802     0.0253785828     0.0001415037 24446.1313014226
   -0.8244897959     0.9692999900    55.5367985066    56.9863709158     0.0252998113     0.0001409611 24448.3717843681
   -0.8224489796     0.9657029407    55.3307027670    56.7758073231     0.0252218325     0.0001404284 24450.5938249588
   -0.8204081633     0.9621245024    55.1256733545    56.5663540543     0.0251446217     0.0001399053 24452.7977909858
   -0.8183673469     0.9585643440    54.9216913014    56.3579907521     0.0250681545     0.0001393917 24454.9840104267
   -0.8163265306     0.9550221437    54.7187381727    56.1506982263     0.0249924177     0.0001388871 24457.1528076794
   -0.8142857143     0.9514975886    54.5167960447    55.9444662295     0.0249175454     0.0001383921 24459.3044873317
   -0.8122448980     0.9479903746    54.3158474857    55.7392656946     0.0248433344     0.0001379057 24461.4393693592
   -0.8102040816     0.9445002057    54.1158755372    55.5350784628     0.0247697638     0.0001374276 24463.5577520536
   -0.8081632653     0.9410267938    53.9168636960    55.3318868628     0.0246968133     0.0001369578 24465.6599117541
   -0.8061224490     0.9375698586    53.7187958976    55.1296736949     0.0246244629     0.0001364959 24467.7461211299
   -0.8040816327     0.9341291270    53.5216564995    54.9284222161     0.0245526936     0.0001360418 24469.8166648619
   -0.8020408163     0.9307043332    53.3254302661    54.7281161199     0.0244814865     0.0001355952 24471.8718053457
   -0.8000000000     0.9272952180    53.1301023542    54.5287395207     0.0244108236     0.0001351560 24473.9117823726
   -0.7979591837     0.9239015290    52.9356582985    54.3302769428     0.0243406872     0.0001347240 24475.9368459227
   -0.7959183673     0.9205230201    52.7420839987    54.1327133044     0.0242710601     0.0001342990 24477.9472410922
   -0.7938775510     0.9171594514    52.5493657065    53.9360380640     0.0242019983     0.0001338812 24479.9431960973
   -0.7918367347     0.9138105888    52.3574900132    53.7402330770     0.0241334192     0.0001334700 24481.9249334519
   -0.7897959184     0.9104762040    52.1664438387    53.5452835599     0.0240652930     0.0001330653 24483.8926781986
   -0.7877551020     0.9071560743    51.9762144194    53.3511758985     0.0239976049     0.0001326670 24485.8466424137
   -0.7857142857     0.9038499823    51.7867892983    53.1578968089     0.0239303405     0.0001322749 24487.7870327793
   -0.7836734694     0.9005577156    51.5981563144    52.9654333273     0.0238634857     0.0001318888 24489.7140508855
   -0.7816326531     0.8972790671    51.4103035930    52.7737727990     0.0237970269     0.0001315086 24491.6278940021
   -0.7795918367     0.8940138344    51.2232195364    52.5829028687     0.0237309509     0.0001311342 24493.5287526371
   -0.7775510204     0.8907618196    51.0368928148    52.3928114705     0.0236652449     0.0001307654 24495.4168112087
   -0.7755102041     0.8875228296    50.8513123577    52.2034868191     0.0235998964     0.0001304021 24497.2922495076
   -0.7734693878     0.8842966755    50.6664673458    52.0149174009     0.0235348933     0.0001300443 24499.1552428468
   -0.7714285714     0.8810831728    50.4823472028    51.8270919654     0.0234702237     0.0001296916 24501.0059622064
   -0.7693877551     0.8778821410    50.2989415880    51.6399995170     0.0234058763     0.0001293442 24502.8445743718
   -0.7673469388     0.8746934035    50.1162403889    51.4536293075     0.0233418400     0.0001290017 24504.6712420665
   -0.7653061224     0.8715167878    49.9342337142    51.2679708280     0.0232781040     0.0001286642 24506.4861240794
   -0.7632653061     0.8683521249    49.7529118872    51.0830138022     0.0232146578     0.0001283315 24508.2893753876
   -0.7612244898     0.8651992496    49.5722654391    50.8987481788     0.0231514913     0.0001280036 24510.0811473103
   -0.7591836735     0.8620580001    49.3922851027    50.7151641255     0.0230885946     0.0001276802 24511.8615873971
   -0.7571428571     0.8589282182    49.2129618067    50.5322520217     0.0230259580     0.0001273614 24513.6308391693
   -0.7551020408     0.8558097488    49.0342866700    50.3500024529     0.0229635724     0.0001270469 24515.3890425720
   -0.7530612245     0.8527024401    48.8562509955    50.1684062042     0.0229014287     0.0001267368 24517.1363341032
   -0.7510204082     0.8496061434    48.6788462656    49.9874542552     0.0228395180     0.0001264309 24518.8728469169
   -0.7489795918     0.8465207132    48.5020641364    49.8071377736     0.0227778320     0.0001261292 24520.5987109223
   -0.7469387755     0.8434460067    48.3258964330    49.6274481103     0.0227163622     0.0001258316 24522.3140528794
   -0.7448979592     0.8403818842    48.1503351447    49.4483767942     0.0226551006     0.0001255379 24524.0189964906
   -0.7428571429     0.8373282086    47.9753724206    49.2699155271     0.0225940395     0.0001252481 24525.7136624894
   -0.7408163265     0.8342848456    47.8010005647    49.0920561788     0.0225331713     0.0001249621 24527.3981687259
   -0.7387755102     0.8312516635    47.6272120320    48.9147907827     0.0224724886     0.0001246799 24529.0726304642
   -0.7367346939     0.8282285332    47.4539994242    48.7381115311     0.0224119842     0.0001244014 24530.7371609242
   -0.7346938776     0.8252153280    47.2813554856    48.5620107707     0.0223516513     0.0001241264 24532.3918707515
   -0.7326530612     0.8222119238    47.1092730996    48.3864809989     0.0222914831     0.0001238550 24534.0368680945
   -0.7306122449     0.8192181987    46.9377452847    48.2115148593     0.0222314730     0.0001235870 24535.6722586762
   -0.7285714286     0.8162340331    46.7667651908    48.0371051378     0.0221716147     0.0001233225 24537.2981458606
   -0.7265306122     0.8132593097    46.5963260961    47.8632447590     0.0221119020     0.0001230612 24538.9146307164
   -0.7244897959     0.8102939134    46.4264214035    47.6899267826     0.0220523290     0.0001228032 24540.5218120784
   -0.7224489796     0.8073377312    46.2570446372    47.5171443995     0.0219928898     0.0001225484 24542.1197866070
   -0.7204081633     0.8043906520    46.0881894401    47.3448928308     0.0219336119     0.0001222969 24543.7086488461
   -0.7183673469     0.8014525670    45.9198495701    47.1731643616     0.0218744697     0.0001220485 24545.2884912780
   -0.7163265306     0.7985233692    45.7520188977    47.0019518565     0.0218154456     0.0001218032 24546.8594043774
   -0.7142857143     0.7956029535    45.5846914028    46.8312489949     0.0217565343     0.0001215608 24548.4214766633
   -0.7122448980     0.7926912167    45.4178611722    46.6610495715     0.0216977308     0.0001213213 24549.9747946715
   -0.7102040816     0.7897880574    45.2515223968    46.4913474938     0.0216390301     0.0001210847 24551.5194427399
   -0.7081632653     0.7868933760    45.0856693690    46.3221367792     0.0215804274     0.0001208509 24553.0555045328
   -0.7061224490     0.7840070746    44.9202964804    46.1534115521     0.0215219181     0.0001206198 24554.5830622085
   -0.7040816327     0.7811290570    44.7553982192    45.9851660416     0.0214634975     0.0001203915 24556.1021962278
   -0.7020408163     0.7782592286    44.5909691678    45.8173945783     0.0214051614     0.0001201658 24557.6129853965
   -0.7000000000     0.7753974966    44.4270040008    45.6500915924     0.0213469055     0.0001199428 24559.1155069056
   -0.6979591837     0.7725437695    44.2634974825    45.4832516112     0.0212887256     0.0001197223 24560.6098363707
