shape model output for Neptune's 1-bar isobaric surface. models are described in Mankovich et al. 2026, PSJ.
the models summarized in this file assume the symmetric H-band 2014 wind profile from Tollefson et al. (2018, Icarus 311) Table 1.
the distribution of models in this file comes from Markov chain Monte Carlo fits to the Voyager 2 radio occultation reported in Lindal (1992, AJ 103).
these solutions vary the polar radius to fit the Voyager 2 radio occultation to a Gaussian with standard deviation 5 km.
the wind fit polynomial coefficients are also allowed to vary within their Gaussian uncertainties following T18 Table 1.
this model has wind polynomial cofficients a, b, c:    -2.743443e+02    1.868294e-01    3.053566e-06
mu=sin(phi), phi [radians], and lat_deg [degrees] refer to planetocentric latitude; lat_pg_deg gives planetographic latitude in degrees.
              mu          phi_rad          lat_deg       lat_pg_deg          psi_rad    omega_rad_s-1             r_km 
   -1.0000000000     1.5707963268    90.0000000000    90.0000000000     0.0000000000     0.0003445912 24040.6027761251
   -0.9998144712     1.5515331758    88.8963027451    89.1769532187     0.0048982748     0.0003440907 24041.7386282123
   -0.9996289425     1.5435536961    88.4391122386    88.8348697108     0.0069072709     0.0003435773 24042.8713335865
   -0.9994434137     1.5374305386    88.0882811581    88.5715908665     0.0084353457     0.0003430657 24044.0009047124
   -0.9992578850     1.5322682374    87.7925030866    88.3489796850     0.0097123489     0.0003425555 24045.1273481923
   -0.9990723562     1.5277199472    87.5319052508    88.1522764648     0.0108275203     0.0003420453 24046.2506680986
   -0.9988868275     1.5236077873    87.2962958471    87.9739338863     0.0118270149     0.0003415382 24047.3708784494
   -0.9987012987     1.5198260904    87.0796205724    87.8094394831     0.0127377429     0.0003410273 24048.4879834213
   -0.9985157699     1.5163060092    86.8779347757    87.6558956604     0.0135779789     0.0003405183 24049.6019815566
   -0.9983302412     1.5129997231    86.6884985354    87.5112740671     0.0143601420     0.0003400105 24050.7128787188
   -0.9981447124     1.5098724146    86.5093169626    87.3741003793     0.0150933179     0.0003395034 24051.8206841410
   -0.9979591837     1.5068978001    86.3388841007    87.2432637678     0.0157844029     0.0003389971 24052.9254085117
   -0.9959183673     1.4804147767    84.8215186329    86.0604376498     0.0216232160     0.0003334668 24064.8759731348
   -0.9938775510     1.4600831244    83.6566007642    85.1261936579     0.0256492347     0.0003280089 24076.4636210854
   -0.9918367347     1.4429339318    82.6740244067    84.3172959108     0.0286804983     0.0003226233 24087.6974206404
   -0.9897959184     1.4278174270    81.8079124837    83.5867821109     0.0310471320     0.0003173095 24098.5862210868
   -0.9877551020     1.4141440401    81.0244851196    82.9109931315     0.0329257762     0.0003120688 24109.1390093607
   -0.9857142857     1.4015635991    80.3036789465    82.2760734255     0.0344247778     0.0003068976 24119.3644606248
   -0.9836734694     1.3898479862    79.6324237728    81.6731835027     0.0356179765     0.0003017952 24129.2713033552
   -0.9816326531     1.3788387766    79.0016425268    81.0963495623     0.0365595346     0.0002967651 24138.8680244581
   -0.9795918367     1.3684206412    78.4047273409    80.5412034167     0.0372885419     0.0002918013 24148.1630198383
   -0.9775510204     1.3585065303    77.8366906282    80.0046179297     0.0378374694     0.0002869073 24157.1646741296
   -0.9755102041     1.3490288258    77.2936581616    79.4841540258     0.0382313651     0.0002820813 24165.8810211531
   -0.9734693878     1.3399337634    76.7725494708    78.9779229563     0.0384910286     0.0002773225 24174.3202133868
   -0.9714285714     1.3311777582    76.2708673246    78.4844320789     0.0386339932     0.0002726309 24182.4900388612
   -0.9693877551     1.3227248956    75.7865539757    78.0024731761     0.0386750860     0.0002680061 24190.3982822475
   -0.9673469388     1.3145451659    75.3178899826    77.5310074452     0.0386261865     0.0002634447 24198.0525491051
   -0.9653061224     1.3066131882    74.8634211408    77.0592039438     0.0383236396     0.0002583188 24205.4532640060
   -0.9632653061     1.2989072697    74.4219045316    76.5781141194     0.0376329567     0.0002521264 24212.5410386649
   -0.9612244898     1.2914086960    73.9922679079    76.1120485397     0.0369971514     0.0002464271 24219.3196245901
   -0.9591836735     1.2841011890    73.5735785965    75.6599443171     0.0364139512     0.0002411757 24225.8192847242
   -0.9571428571     1.2769704845    73.1650193268    75.2204617248     0.0358742374     0.0002363084 24232.0662004204
   -0.9551020408     1.2700040004    72.7658691871    74.7925710907     0.0353726212     0.0002317801 24238.0827093095
   -0.9530612245     1.2631905710    72.3754884407    74.3754104217     0.0349052234     0.0002275548 24243.8885080488
   -0.9510204082     1.2565202341    71.9933062850    73.9682343873     0.0344689979     0.0002236030 24249.5006559127
   -0.9489795918     1.2499840563    71.6188108859    73.5703559638     0.0340608871     0.0002198974 24254.9341946310
   -0.9469387755     1.2435739909    71.2515411916    73.1811096203     0.0336773222     0.0002164115 24260.2024282032
   -0.9448979592     1.2372827589    70.8910801509    72.7999457611     0.0333159899     0.0002131248 24265.3172358718
   -0.9428571429     1.2311037506    70.5370490537    72.4263675212     0.0329748279     0.0002100193 24270.2891616555
   -0.9408163265     1.2250309424    70.1891027733    72.0599243543     0.0326519963     0.0002070793 24275.1276376814
   -0.9387755102     1.2190588266    69.8469257429    71.7002234086     0.0323461463     0.0002042916 24279.8412365929
   -0.9367346939     1.2131823517    69.5102285299    71.3469103398     0.0320561449     0.0002016448 24284.4376523110
   -0.9346938776     1.2073968710    69.1787449051    70.9996135403     0.0317801529     0.0001991259 24288.9238997818
   -0.9326530612     1.2016980990    68.8522293213    70.6580181893     0.0315169613     0.0001967249 24293.3063619032
   -0.9306122449     1.1960820730    68.5304547326    70.3218351524     0.0312654865     0.0001944326 24297.5907997971
   -0.9285714286     1.1905451201    68.2132107017    69.9907982797     0.0310247560     0.0001922408 24301.7825492237
   -0.9265306122     1.1850838286    67.9003017483    69.6647365521     0.0307951968     0.0001901469 24305.8864989259
   -0.9244897959     1.1796950225    67.5915459031    69.3433607562     0.0305749371     0.0001881403 24309.9071519945
   -0.9224489796     1.1743757395    67.2867734365    69.0264467741     0.0303630277     0.0001862142 24313.8486183572
   -0.9204081633     1.1691232113    66.9858257369    68.7138413365     0.0301595617     0.0001843657 24317.7147167202
   -0.9183673469     1.1639348463    66.6885543185    68.4053741212     0.0299641582     0.0001825906 24321.5090048624
   -0.9163265306     1.1588082142    66.3948199388    68.1008180773     0.0297752845     0.0001808809 24325.2347072383
   -0.9142857143     1.1537410325    66.1044918138    67.8000802001     0.0295936001     0.0001792363 24328.8949329218
   -0.9122448980     1.1487311539    65.8174469161    67.5029814387     0.0294181271     0.0001776512 24332.4925332476
   -0.9102040816     1.1437765557    65.5335693460    67.2093631776     0.0292481199     0.0001761209 24336.0300818533
   -0.9081632653     1.1388753294    65.2527497676    66.9191617163     0.0290843752     0.0001746462 24339.5101348929
   -0.9061224490     1.1340256726    64.9748848997    66.6321652622     0.0289249990     0.0001732189 24342.9349569782
   -0.9040816327     1.1292258803    64.6998770572    66.3483580115     0.0287714203     0.0001718422 24346.3067646919
   -0.9020408163     1.1244743380    64.4276337361    66.0675345894     0.0286216693     0.0001705078 24349.6275685766
   -0.9000000000     1.1197695150    64.1580672368    65.7896775671     0.0284769724     0.0001692184 24352.8992984065
   -0.8979591837     1.1151099586    63.8910943224    65.5146098318     0.0283356911     0.0001679671 24356.1237242879
   -0.8959183673     1.1104942885    63.6266359071    65.2423207220     0.0281990197     0.0001667568 24359.3025855799
   -0.8938775510     1.1059211919    63.3646167727    64.9726394796     0.0280652907     0.0001655806 24362.4374367852
   -0.8918367347     1.1013894190    63.1049653087    64.7055683789     0.0279357936     0.0001644418 24365.5298401028
   -0.8897959184     1.0968977787    62.8476132749    64.4409548834     0.0278090572     0.0001633344 24368.5811776286
   -0.8877551020     1.0924451350    62.5924955840    64.1787714752     0.0276857371     0.0001622597 24371.5928441043
   -0.8857142857     1.0880304035    62.3395501007    63.9189274751     0.0275653353     0.0001612150 24374.5661049600
   -0.8836734694     1.0836525480    62.0887174586    63.6613421077     0.0274474780     0.0001601983 24377.5021583560
   -0.8816326531     1.0793105778    61.8399408902    63.4059962437     0.0273328222     0.0001592110 24380.4021968864
   -0.8795918367     1.0750035447    61.5931660703    63.1527752061     0.0272203145     0.0001582488 24383.2672856438
   -0.8775510204     1.0707305406    61.3483409720    62.9016506386     0.0271103680     0.0001573124 24386.0984892046
   -0.8755102041     1.0664906953    61.1054157324    62.6525671888     0.0270028869     0.0001564008 24388.8967874192
   -0.8734693878     1.0622831742    60.8643425293    62.4054444807     0.0268973032     0.0001555114 24391.6631259266
   -0.8714285714     1.0581071761    60.6250754655    62.1602613172     0.0267940477     0.0001546452 24394.3984220698
   -0.8693877551     1.0539619319    60.3875704629    61.9169591306     0.0266928678     0.0001538006 24397.1035088134
   -0.8673469388     1.0498467020    60.1517851626    61.6754726855     0.0265933640     0.0001529759 24399.7792213607
   -0.8653061224     1.0457607758    59.9176788330    61.4357749409     0.0264957754     0.0001521714 24402.4263731361
   -0.8632653061     1.0417034691    59.6852122830    61.1978286520     0.0264001360     0.0001513866 24405.0456934226
   -0.8612244898     1.0376741234    59.4543477825    60.9615692962     0.0263059780     0.0001506195 24407.6378687369
   -0.8591836735     1.0336721045    59.2250489867    60.7269579151     0.0262132559     0.0001498696 24410.2036119745
   -0.8571428571     1.0296968008    58.9972808661    60.4939860206     0.0261224329     0.0001491380 24412.7436053292
   -0.8551020408     1.0257476230    58.7710096411    60.2625895885     0.0260329811     0.0001484226 24415.2584362199
   -0.8530612245     1.0218240020    58.5462027200    60.0327302066     0.0259447991     0.0001477226 24417.7487569425
   -0.8510204082     1.0179253889    58.3228286418    59.8043741387     0.0258578469     0.0001470375 24420.2151135436
   -0.8489795918     1.0140512533    58.1008570218    59.5775132150     0.0257725125     0.0001463684 24422.6580776690
   -0.8469387755     1.0102010827    57.8802585008    59.3520915435     0.0256883326     0.0001457133 24425.0781944373
   -0.8448979592     1.0063743820    57.6610046973    59.1280769291     0.0256052408     0.0001450717 24427.4759638948
   -0.8428571429     1.0025706719    57.4430681625    58.9054399584     0.0255232027     0.0001444431 24429.8518809702
   -0.8408163265     0.9987894889    57.2264223382    58.6841599417     0.0254423208     0.0001438278 24432.2064454163
   -0.8387755102     0.9950303845    57.0110415164    58.4642135490     0.0253626366     0.0001432255 24434.5401179841
   -0.8367346939     0.9912929239    56.7969008020    58.2455606944     0.0252838849     0.0001426350 24436.8533153964
   -0.8346938776     0.9875766864    56.5839760772    58.0281755636     0.0252060361     0.0001420561 24439.1464734067
   -0.8326530612     0.9838812640    56.3722439680    57.8120331311     0.0251290614     0.0001414884 24441.4200126272
   -0.8306122449     0.9802062611    56.1616818123    57.5971091263     0.0250529328     0.0001409316 24443.6743285727
   -0.8285714286     0.9765512941    55.9522676300    57.3833941444     0.0249778697     0.0001403862 24445.9097882790
   -0.8265306122     0.9729159908    55.7439800947    57.1708510132     0.0249035955     0.0001398511 24448.1267683648
   -0.8244897959     0.9692999900    55.5367985066    56.9594567366     0.0248300702     0.0001393259 24450.3256478023
   -0.8224489796     0.9657029407    55.3307027670    56.7491898261     0.0247572696     0.0001388103 24452.5067563261
   -0.8204081633     0.9621245024    55.1256733545    56.5400294098     0.0246851700     0.0001383042 24454.6704231832
   -0.8183673469     0.9585643440    54.9216913014    56.3319552090     0.0246137485     0.0001378072 24456.8169814230
   -0.8163265306     0.9550221437    54.7187381727    56.1249480884     0.0245429930     0.0001373191 24458.9467531283
   -0.8142857143     0.9514975886    54.5167960447    55.9189975570     0.0244730332     0.0001368403 24461.0600221317
   -0.8122448980     0.9479903746    54.3158474857    55.7140749801     0.0244036735     0.0001363698 24463.1570808182
   -0.8102040816     0.9445002057    54.1158755372    55.5101622681     0.0243348942     0.0001359075 24465.2382336924
   -0.8081632653     0.9410267938    53.9168636960    55.3072418153     0.0242666760     0.0001354532 24467.3037440679
   -0.8061224490     0.9375698586    53.7187958976    55.1052964872     0.0241990004     0.0001350066 24469.3538837525
   -0.8040816327     0.9341291270    53.5216564995    54.9043096012     0.0241318490     0.0001345676 24471.3889107864
   -0.8020408163     0.9307043332    53.3254302661    54.7042649107     0.0240652044     0.0001341359 24473.4090697994
   -0.8000000000     0.9272952180    53.1301023542    54.5051465900     0.0239990493     0.0001337115 24475.4145977298
   -0.7979591837     0.9239015290    52.9356582985    54.3069392208     0.0239333671     0.0001332940 24477.4057317231
   -0.7959183673     0.9205230201    52.7420839987    54.1096277779     0.0238681416     0.0001328834 24479.3827122985
   -0.7938775510     0.9171594514    52.5493657065    53.9132016279     0.0238034273     0.0001324796 24481.3457575656
   -0.7918367347     0.9138105888    52.3574900132    53.7176428139     0.0237391447     0.0001320824 24483.2950850904
   -0.7897959184     0.9104762040    52.1664438387    53.5229366323     0.0236752655     0.0001316915 24485.2309083017
   -0.7877551020     0.9071560743    51.9762144194    53.3290695181     0.0236117758     0.0001313068 24487.1534264937
   -0.7857142857     0.9038499823    51.7867892983    53.1360282351     0.0235486618     0.0001309281 24489.0628294733
   -0.7836734694     0.9005577156    51.5981563144    52.9437998673     0.0234859106     0.0001305553 24490.9593167780
   -0.7816326531     0.8972790671    51.4103035930    52.7523718069     0.0234235091     0.0001301882 24492.8430830250
   -0.7795918367     0.8940138344    51.2232195364    52.5617317433     0.0233614451     0.0001298267 24494.7143106636
   -0.7775510204     0.8907618196    51.0368928148    52.3718676539     0.0232997064     0.0001294708 24496.5731704290
   -0.7755102041     0.8875228296    50.8513123577    52.1827677951     0.0232382812     0.0001291201 24498.4198248931
   -0.7734693878     0.8842966755    50.6664673458    51.9944206960     0.0231771583     0.0001287747 24500.2544510222
   -0.7714285714     0.8810831728    50.4823472028    51.8068151476     0.0231163265     0.0001284345 24502.0772224414
   -0.7693877551     0.8778821410    50.2989415880    51.6199401942     0.0230557751     0.0001280992 24503.8882992310
   -0.7673469388     0.8746934035    50.1162403889    51.4337851251     0.0229954937     0.0001277688 24505.6878284650
   -0.7653061224     0.8715167878    49.9342337142    51.2483394687     0.0229354721     0.0001274432 24507.4759550192
   -0.7632653061     0.8683521249    49.7529118872    51.0635929860     0.0228757006     0.0001271223 24509.2528336446
   -0.7612244898     0.8651992496    49.5722654391    50.8795356622     0.0228161696     0.0001268060 24511.0186128376
   -0.7591836735     0.8620580001    49.3922851027    50.6961576998     0.0227568698     0.0001264941 24512.7734332353
   -0.7571428571     0.8589282182    49.2129618067    50.5134495121     0.0226977923     0.0001261867 24514.5174280755
   -0.7551020408     0.8558097488    49.0342866700    50.3314017178     0.0226389284     0.0001258835 24516.2507294304
   -0.7530612245     0.8527024401    48.8562509955    50.1500051349     0.0225802694     0.0001255845 24517.9734688373
   -0.7510204082     0.8496061434    48.6788462656    49.9692507748     0.0225218074     0.0001252897 24519.6857744126
   -0.7489795918     0.8465207132    48.5020641364    49.7891298364     0.0224635342     0.0001249989 24521.3877713992
   -0.7469387755     0.8434460067    48.3258964330    49.6096337013     0.0224054421     0.0001247120 24523.0795822494
   -0.7448979592     0.8403818842    48.1503351447    49.4307539280     0.0223475236     0.0001244290 24524.7613266869
   -0.7428571429     0.8373282086    47.9753724206    49.2524822474     0.0222897714     0.0001241497 24526.4331192463
   -0.7408163265     0.8342848456    47.8010005647    49.0748105575     0.0222321784     0.0001238742 24528.0950719308
   -0.7387755102     0.8312516635    47.6272120320    48.8977309194     0.0221747378     0.0001236023 24529.7472956212
   -0.7367346939     0.8282285332    47.4539994242    48.7212355525     0.0221174428     0.0001233340 24531.3898985944
   -0.7346938776     0.8252153280    47.2813554856    48.5453168301     0.0220602871     0.0001230691 24533.0229865963
   -0.7326530612     0.8222119238    47.1092730996    48.3699672753     0.0220032642     0.0001228077 24534.6466629117
   -0.7306122449     0.8192181987    46.9377452847    48.1951795569     0.0219463682     0.0001225497 24536.2610284328
   -0.7285714286     0.8162340331    46.7667651908    48.0209464856     0.0218895930     0.0001222949 24537.8661817244
   -0.7265306122     0.8132593097    46.5963260961    47.8472610103     0.0218329330     0.0001220434 24539.4622190867
   -0.7244897959     0.8102939134    46.4264214035    47.6741162141     0.0217763825     0.0001217950 24541.0492346173
   -0.7224489796     0.8073377312    46.2570446372    47.5015053110     0.0217199362     0.0001215497 24542.6273204720
   -0.7204081633     0.8043906520    46.0881894401    47.3294234767     0.0216636207     0.0001213076 24544.1965675058
   -0.7183673469     0.8014525670    45.9198495701    47.1578630597     0.0216074116     0.0001210686 24545.7570645362
   -0.7163265306     0.7985233692    45.7520188977    46.9868169715     0.0215512920     0.0001208324 24547.3088984476
   -0.7142857143     0.7956029535    45.5846914028    46.8162789129     0.0214952571     0.0001205992 24548.8521542573
   -0.7122448980     0.7926912167    45.4178611722    46.6462426996     0.0214393021     0.0001203688 24550.3869151627
   -0.7102040816     0.7897880574    45.2515223968    46.4767022595     0.0213834225     0.0001201411 24551.9132625883
   -0.7081632653     0.7868933760    45.0856693690    46.3076516302     0.0213276139     0.0001199162 24553.4312762298
   -0.7061224490     0.7840070746    44.9202964804    46.1390849555     0.0212718718     0.0001196939 24554.9410340980
   -0.7040816327     0.7811290570    44.7553982192    45.9709964836     0.0212161921     0.0001194743 24556.4426125601
   -0.7020408163     0.7782592286    44.5909691678    45.8033805641     0.0211605708     0.0001192573 24557.9360863810
   -0.7000000000     0.7753974966    44.4270040008    45.6362316453     0.0211050038     0.0001190428 24559.4215287619
   -0.6979591837     0.7725437695    44.2634974825    45.4695442726     0.0210494874     0.0001188308 24560.8990114248
