shape model output for Neptune's 1-bar isobaric surface. models are described in Mankovich et al. 2026, PSJ.
the models summarized in this file assume the symmetric H-band 2014 wind profile from Tollefson et al. (2018, Icarus 311) Table 1.
the distribution of models in this file comes from Markov chain Monte Carlo fits to the Voyager 2 radio occultation reported in Lindal (1992, AJ 103).
these solutions vary the polar radius to fit the Voyager 2 radio occultation to a Gaussian with standard deviation 5 km.
the wind fit polynomial coefficients are also allowed to vary within their Gaussian uncertainties following T18 Table 1.
this model has wind polynomial cofficients a, b, c:    -2.779871e+02    1.953567e-01   -1.007232e-05
mu=sin(phi), phi [radians], and lat_deg [degrees] refer to planetocentric latitude; lat_pg_deg gives planetographic latitude in degrees.
              mu          phi_rad          lat_deg       lat_pg_deg          psi_rad    omega_rad_s-1             r_km 
   -1.0000000000     1.5707963268    90.0000000000    90.0000000000     0.0000000000     0.0002949250 24117.2476268060
   -0.9998144712     1.5515331758    88.8963027451    89.1069542636     0.0036765626     0.0002945298 24118.1028071100
   -0.9996289425     1.5435536961    88.4391122386    88.7362220943     0.0051855452     0.0002941243 24118.9557774229
   -0.9994434137     1.5374305386    88.0882811581    88.4511942085     0.0063340276     0.0002937203 24119.8065437780
   -0.9992578850     1.5322682374    87.7925030866    88.2104423962     0.0072944170     0.0002933174 24120.6551156638
   -0.9990723562     1.5277199472    87.5319052508    87.9979285629     0.0081336412     0.0002929144 24121.5014998235
   -0.9988868275     1.5236077873    87.2962958471    87.8054428262     0.0088862912     0.0002925139 24122.3457011465
   -0.9987012987     1.5198260904    87.0796205724    87.6280884378     0.0095725701     0.0002921104 24123.1877231288
   -0.9985157699     1.5163060092    86.8779347757    87.4627039876     0.0102061481     0.0002917084 24124.0275661882
   -0.9983302412     1.5129997231    86.6884985354    87.3070828994     0.0107963339     0.0002913073 24124.8652353625
   -0.9981447124     1.5098724146    86.5093169626    87.1596203216     0.0113499348     0.0002909069 24125.7007372804
   -0.9979591837     1.5068978001    86.3388841007    87.0191062247     0.0118721157     0.0002905070 24126.5340782474
   -0.9959183673     1.4804147767    84.8215186329    85.7555608129     0.0163021114     0.0002861393 24135.5596434390
   -0.9938775510     1.4600831244    83.6566007642    84.7672547564     0.0193845690     0.0002818288 24144.3307654810
   -0.9918367347     1.4429339318    82.6740244067    83.9190655642     0.0217300675     0.0002775754 24152.8538875742
   -0.9897959184     1.4278174270    81.8079124837    83.1591932314     0.0235842982     0.0002733787 24161.1353862652
   -0.9877551020     1.4141440401    81.0244851196    82.4613671275     0.0250783220     0.0002692397 24169.1814589649
   -0.9857142857     1.4015635991    80.3036789465    81.8101192402     0.0262923431     0.0002651556 24176.9982155289
   -0.9836734694     1.3898479862    79.6324237728    81.1955007169     0.0272808391     0.0002611259 24184.5917468067
   -0.9816326531     1.3788387766    79.0016425268    80.6107150369     0.0280836132     0.0002571532 24191.9679512067
   -0.9795918367     1.3684206412    78.4047273409    80.0508005944     0.0287293980     0.0002532329 24199.1326759344
   -0.9775510204     1.3585065303    77.8366906282    79.5121285174     0.0292419076     0.0002493678 24206.0916632713
   -0.9755102041     1.3490288258    77.2936581616    78.9918726230     0.0296394338     0.0002455563 24212.8505275287
   -0.9734693878     1.3399337634    76.7725494708    78.4878200279     0.0299371188     0.0002417979 24219.4147755393
   -0.9714285714     1.3311777582    76.2708673246    77.9982029620     0.0301476942     0.0002380926 24225.7898091972
   -0.9693877551     1.3227248956    75.7865539757    77.5215793982     0.0302819062     0.0002344400 24231.9809326559
   -0.9673469388     1.3145451659    75.3178899826    77.0567238339     0.0303483759     0.0002308376 24237.9933291256
   -0.9653061224     1.3066131882    74.8634211408    76.5964317114     0.0302467404     0.0002268420 24243.8276987932
   -0.9632653061     1.2989072697    74.4219045316    76.1348561048     0.0298966449     0.0002221111 24249.4477335098
   -0.9612244898     1.2914086960    73.9922679079    75.6867962077     0.0295750981     0.0002177514 24254.8566504627
   -0.9591836735     1.2841011890    73.5735785965    75.2512837637     0.0292814790     0.0002137288 24260.0744442963
   -0.9571428571     1.2769704845    73.1650193268    74.8271990945     0.0290105097     0.0002099957 24265.1181865255
   -0.9551020408     1.2700040004    72.7658691871    74.4136531277     0.0287592551     0.0002065183 24270.0025699841
   -0.9530612245     1.2631905710    72.3754884407    74.0098900399     0.0285256892     0.0002032694 24274.7404853619
   -0.9510204082     1.2565202341    71.9933062850    73.6152505340     0.0283082674     0.0002002270 24279.3433678552
   -0.9489795918     1.2499840563    71.6188108859    73.2291301840     0.0281053738     0.0001973706 24283.8211699818
   -0.9469387755     1.2435739909    71.2515411916    72.8509523648     0.0279149911     0.0001946803 24288.1826454550
   -0.9448979592     1.2372827589    70.8910801509    72.4802299753     0.0277358967     0.0001921407 24292.4358344624
   -0.9428571429     1.2311037506    70.5370490537    72.1165216418     0.0275669971     0.0001897384 24296.5877741583
   -0.9408163265     1.2250309424    70.1891027733    71.7594262000     0.0274073141     0.0001874612 24300.6448044701
   -0.9387755102     1.2190588266    69.8469257429    71.4085894213     0.0272561730     0.0001852996 24304.6126679411
   -0.9367346939     1.2131823517    69.5102285299    71.0636902297     0.0271130215     0.0001832448 24308.4965735069
   -0.9346938776     1.2073968710    69.1787449051    70.7244018621     0.0269768030     0.0001812871 24312.3012558960
   -0.9326530612     1.2016980990    68.8522293213    70.3904416044     0.0268468689     0.0001794188 24316.0310303598
   -0.9306122449     1.1960820730    68.5304547326    70.0615491358     0.0267226385     0.0001776332 24319.6898464232
   -0.9285714286     1.1905451201    68.2132107017    69.7374841968     0.0266035912     0.0001759241 24323.2813303164
   -0.9265306122     1.1850838286    67.9003017483    69.4180759172     0.0264901565     0.0001742893 24326.8087795056
   -0.9244897959     1.1796950225    67.5915459031    69.1030756850     0.0263811714     0.0001727210 24330.2753022357
   -0.9224489796     1.1743757395    67.2867734365    68.7922827018     0.0262760936     0.0001712141 24333.6837431480
   -0.9204081633     1.1691232113    66.9858257369    68.4855480340     0.0261750919     0.0001697664 24337.0367073042
   -0.9183673469     1.1639348463    66.6885543185    68.1827137095     0.0260780009     0.0001683746 24340.3366420793
   -0.9163265306     1.1588082142    66.3948199388    67.8835846909     0.0259838467     0.0001670327 24343.5858211140
   -0.9142857143     1.1537410325    66.1044918138    67.5880612052     0.0258931706     0.0001657405 24346.7863394645
   -0.9122448980     1.1487311539    65.8174469161    67.2959857029     0.0258053699     0.0001644938 24349.9401764320
   -0.9102040816     1.1437765557    65.5335693460    67.0072165682     0.0257199960     0.0001632890 24353.0491592007
   -0.9081632653     1.1388753294    65.2527497676    66.7216802425     0.0256376733     0.0001621268 24356.1150311152
   -0.9061224490     1.1340256726    64.9748848997    66.4392010739     0.0255571385     0.0001610008 24359.1393967737
   -0.9040816327     1.1292258803    64.6998770572    66.1597421687     0.0254794528     0.0001599136 24362.1237915499
   -0.9020408163     1.1244743380    64.4276337361    65.8831349133     0.0254032878     0.0001588588 24365.0696478854
   -0.9000000000     1.1197695150    64.1580672368    65.6093439950     0.0253295578     0.0001578385 24367.9782952598
   -0.8979591837     1.1151099586    63.8910943224    65.3382228072     0.0252571568     0.0001568475 24370.8509862635
   -0.8959183673     1.1104942885    63.6266359071    65.0697431703     0.0251869732     0.0001558879 24373.6888946842
   -0.8938775510     1.1059211919    63.3646167727    64.8037648012     0.0251178715     0.0001549546 24376.4932145713
   -0.8918367347     1.1013894190    63.1049653087    64.5402707199     0.0250508052     0.0001540500 24379.2649874584
   -0.8897959184     1.0968977787    62.8476132749    64.2791351216     0.0249847695     0.0001531695 24382.0052051989
   -0.8877551020     1.0924451350    62.5924955840    64.0203216551     0.0249202661     0.0001523142 24384.7148688120
   -0.8857142857     1.0880304035    62.3395501007    63.7637498603     0.0248569750     0.0001514820 24387.3948817387
   -0.8836734694     1.0836525480    62.0887174586    63.5093469511     0.0247946621     0.0001506714 24390.0460806196
   -0.8816326531     1.0793105778    61.8399408902    63.2570847861     0.0247338270     0.0001498835 24392.6693071981
   -0.8795918367     1.0750035447    61.5931660703    63.0068676091     0.0246737465     0.0001491150 24395.2653420963
   -0.8775510204     1.0707305406    61.3483409720    62.7586618910     0.0246147435     0.0001483663 24397.8349354402
   -0.8755102041     1.0664906953    61.1054157324    62.5124153658     0.0245567762     0.0001476368 24400.3788034133
   -0.8734693878     1.0622831742    60.8643425293    62.2680582784     0.0244994616     0.0001469245 24402.8976067655
   -0.8714285714     1.0581071761    60.6250754655    62.0255638376     0.0244431332     0.0001462301 24405.3920179597
   -0.8693877551     1.0539619319    60.3875704629    61.7848788655     0.0243876323     0.0001455525 24407.8626436556
   -0.8673469388     1.0498467020    60.1517851626    61.5459457514     0.0243326926     0.0001448903 24410.3100643760
   -0.8653061224     1.0457607758    59.9176788330    61.3087348113     0.0242785069     0.0001442436 24412.7348647120
   -0.8632653061     1.0417034691    59.6852122830    61.0732094144     0.0242251200     0.0001436123 24415.1375961346
   -0.8612244898     1.0376741234    59.4543477825    60.8393135405     0.0241722125     0.0001429947 24417.5187709631
   -0.8591836735     1.0336721045    59.2250489867    60.6070099566     0.0241197691     0.0001423905 24419.8788799635
   -0.8571428571     1.0296968008    58.9972808661    60.3762838790     0.0240681430     0.0001418005 24422.2183954985
   -0.8551020408     1.0257476230    58.7710096411    60.1470805452     0.0240169680     0.0001412230 24424.5377827245
   -0.8530612245     1.0218240020    58.5462027200    59.9193640237     0.0239661859     0.0001406575 24426.8375094266
   -0.8510204082     1.0179253889    58.3228286418    59.6931020523     0.0239157827     0.0001401036 24429.1179842878
   -0.8489795918     1.0140512533    58.1008570218    59.4682812824     0.0238660556     0.0001395622 24431.3796045482
   -0.8469387755     1.0102010827    57.8802585008    59.2448538166     0.0238166812     0.0001390316 24433.6227546987
   -0.8448979592     1.0063743820    57.6610046973    59.0227892507     0.0237676242     0.0001385116 24435.8478382880
   -0.8428571429     1.0025706719    57.4430681625    58.8020594270     0.0237188721     0.0001380018 24438.0552163376
   -0.8408163265     0.9987894889    57.2264223382    58.5826427934     0.0236705123     0.0001375023 24440.2452399631
   -0.8387755102     0.9950303845    57.0110415164    58.3645160838     0.0236225875     0.0001370129 24442.4182354701
   -0.8367346939     0.9912929239    56.7969008020    58.1476439237     0.0235749148     0.0001365328 24444.5745389003
   -0.8346938776     0.9875766864    56.5839760772    57.9320015739     0.0235274833     0.0001360617 24446.7144612703
   -0.8326530612     0.9838812640    56.3722439680    57.7175650489     0.0234802824     0.0001355994 24448.8383067975
   -0.8306122449     0.9802062611    56.1616818123    57.5043110866     0.0234333015     0.0001351456 24450.9463768744
   -0.8285714286     0.9765512941    55.9522676300    57.2922275583     0.0233867126     0.0001347008 24453.0389434414
   -0.8265306122     0.9729159908    55.7439800947    57.0812820027     0.0233403214     0.0001342640 24455.1162805882
   -0.8244897959     0.9692999900    55.5367985066    56.8714525478     0.0232941074     0.0001338350 24457.1786670480
   -0.8224489796     0.9657029407    55.3307027670    56.6627185755     0.0232480615     0.0001334135 24459.2263667874
   -0.8204081633     0.9621245024    55.1256733545    56.4550600531     0.0232021749     0.0001329994 24461.2596136989
   -0.8183673469     0.9585643440    54.9216913014    56.2484575140     0.0231564388     0.0001325925 24463.2786446802
   -0.8163265306     0.9550221437    54.7187381727    56.0428924633     0.0231108522     0.0001321926 24465.2837029678
   -0.8142857143     0.9514975886    54.5167960447    55.8383529570     0.0230655194     0.0001318000 24467.2750198939
   -0.8122448980     0.9479903746    54.3158474857    55.6348136711     0.0230203027     0.0001314140 24469.2528112308
   -0.8102040816     0.9445002057    54.1158755372    55.4322572187     0.0229751946     0.0001310343 24471.2172888995
   -0.8081632653     0.9410267938    53.9168636960    55.2306666781     0.0229301878     0.0001306610 24473.1686575408
   -0.8061224490     0.9375698586    53.7187958976    55.0300255760     0.0228852751     0.0001302937 24475.1071156427
   -0.8040816327     0.9341291270    53.5216564995    54.8303178719     0.0228404497     0.0001299325 24477.0328601936
   -0.8020408163     0.9307043332    53.3254302661    54.6315279422     0.0227957048     0.0001295770 24478.9460825103
   -0.8000000000     0.9272952180    53.1301023542    54.4336405650     0.0227510337     0.0001292272 24480.8469660183
   -0.7979591837     0.9239015290    52.9356582985    54.2366409064     0.0227064300     0.0001288829 24482.7356865569
   -0.7959183673     0.9205230201    52.7420839987    54.0405145069     0.0226618875     0.0001285440 24484.6124134581
   -0.7938775510     0.9171594514    52.5493657065    53.8452502871     0.0226174527     0.0001282106 24486.4773169801
   -0.7918367347     0.9138105888    52.3574900132    53.6508317422     0.0225730715     0.0001278823 24488.3305607795
   -0.7897959184     0.9104762040    52.1664438387    53.4572448778     0.0225287281     0.0001275590 24490.1723040215
   -0.7877551020     0.9071560743    51.9762144194    53.2644766253     0.0224844171     0.0001272407 24492.0027027698
   -0.7857142857     0.9038499823    51.7867892983    53.0725142312     0.0224401334     0.0001269270 24493.8219100836
   -0.7836734694     0.9005577156    51.5981563144    52.8813452460     0.0223958718     0.0001266181 24495.6300737674
   -0.7816326531     0.8972790671    51.4103035930    52.6909575144     0.0223516275     0.0001263137 24497.4273336752
   -0.7795918367     0.8940138344    51.2232195364    52.5013391663     0.0223073958     0.0001260137 24499.2138273081
   -0.7775510204     0.8907618196    51.0368928148    52.3124786073     0.0222631720     0.0001257181 24500.9896896874
   -0.7755102041     0.8875228296    50.8513123577    52.1243645105     0.0222189516     0.0001254268 24502.7550534226
   -0.7734693878     0.8842966755    50.6664673458    51.9369858075     0.0221747304     0.0001251396 24504.5100487824
   -0.7714285714     0.8810831728    50.4823472028    51.7503316810     0.0221305040     0.0001248565 24506.2548037620
   -0.7693877551     0.8778821410    50.2989415880    51.5643915561     0.0220862685     0.0001245774 24507.9894441489
   -0.7673469388     0.8746934035    50.1162403889    51.3791550931     0.0220420198     0.0001243021 24509.7140862958
   -0.7653061224     0.8715167878    49.9342337142    51.1946121803     0.0219977541     0.0001240307 24511.4288429060
   -0.7632653061     0.8683521249    49.7529118872    51.0107529280     0.0219534676     0.0001237630 24513.1338305269
   -0.7612244898     0.8651992496    49.5722654391    50.8275676608     0.0219091569     0.0001234990 24514.8291618102
   -0.7591836735     0.8620580001    49.3922851027    50.6450469119     0.0218648183     0.0001232385 24516.5149456349
   -0.7571428571     0.8589282182    49.2129618067    50.4631814162     0.0218204486     0.0001229815 24518.1912872275
   -0.7551020408     0.8558097488    49.0342866700    50.2819621050     0.0217760443     0.0001227280 24519.8582882787
   -0.7530612245     0.8527024401    48.8562509955    50.1013800997     0.0217316025     0.0001224778 24521.5160470536
   -0.7510204082     0.8496061434    48.6788462656    49.9214267072     0.0216871199     0.0001222309 24523.1646602281
   -0.7489795918     0.8465207132    48.5020641364    49.7420934145     0.0216425937     0.0001219872 24524.8042296596
   -0.7469387755     0.8434460067    48.3258964330    49.5633718829     0.0215980210     0.0001217467 24526.4348502313
   -0.7448979592     0.8403818842    48.1503351447    49.3852539433     0.0215533990     0.0001215093 24528.0566137130
   -0.7428571429     0.8373282086    47.9753724206    49.2077315916     0.0215087251     0.0001212749 24529.6696097154
   -0.7408163265     0.8342848456    47.8010005647    49.0307969838     0.0214639966     0.0001210435 24531.2739257515
   -0.7387755102     0.8312516635    47.6272120320    48.8544424323     0.0214192112     0.0001208150 24532.8696472957
   -0.7367346939     0.8282285332    47.4539994242    48.6786604007     0.0213743663     0.0001205893 24534.4568578401
   -0.7346938776     0.8252153280    47.2813554856    48.5034435005     0.0213294596     0.0001203665 24536.0356389500
   -0.7326530612     0.8222119238    47.1092730996    48.3287844865     0.0212844890     0.0001201464 24537.6060705374
   -0.7306122449     0.8192181987    46.9377452847    48.1546762537     0.0212394522     0.0001199290 24539.1682337069
   -0.7285714286     0.8162340331    46.7667651908    47.9811118330     0.0211943472     0.0001197142 24540.7222061042
   -0.7265306122     0.8132593097    46.5963260961    47.8080843873     0.0211491719     0.0001195021 24542.2680629409
   -0.7244897959     0.8102939134    46.4264214035    47.6355872088     0.0211039245     0.0001192925 24543.8058780079
   -0.7224489796     0.8073377312    46.2570446372    47.4636137151     0.0210586031     0.0001190854 24545.3357237121
   -0.7204081633     0.8043906520    46.0881894401    47.2921588713     0.0210132307     0.0001188808 24546.8576711110
   -0.7183673469     0.8014525670    45.9198495701    47.1212154715     0.0209677905     0.0001186787 24548.3717899470
   -0.7163265306     0.7985233692    45.7520188977    46.9507767668     0.0209222717     0.0001184790 24549.8781486799
   -0.7142857143     0.7956029535    45.5846914028    46.7808366426     0.0208766728     0.0001182816 24551.3768145188
   -0.7122448980     0.7926912167    45.4178611722    46.6113890950     0.0208309920     0.0001180864 24552.8678534530
   -0.7102040816     0.7897880574    45.2515223968    46.4424282276     0.0207852278     0.0001178936 24554.3513302342
   -0.7081632653     0.7868933760    45.0856693690    46.2739482490     0.0207393789     0.0001177029 24555.8273078205
   -0.7061224490     0.7840070746    44.9202964804    46.1059434704     0.0206934437     0.0001175144 24557.2958475611
   -0.7040816327     0.7811290570    44.7553982192    45.9384083029     0.0206474210     0.0001173280 24558.7570096500
   -0.7020408163     0.7782592286    44.5909691678    45.7713372549     0.0206013095     0.0001171437 24560.2108531625
   -0.7000000000     0.7753974966    44.4270040008    45.6047249301     0.0205551079     0.0001169614 24561.6574360820
   -0.6979591837     0.7725437695    44.2634974825    45.4385660251     0.0205088150     0.0001167812 24563.0968153255
