shape model output for Neptune's 1-bar isobaric surface. models are described in Mankovich et al. 2026, PSJ.
the models summarized in this file assume the symmetric H-band 2014 wind profile from Tollefson et al. (2018, Icarus 311) Table 1.
the distribution of models in this file comes from Markov chain Monte Carlo fits to the Voyager 2 radio occultation reported in Lindal (1992, AJ 103).
these solutions vary the polar radius to fit the Voyager 2 radio occultation to a Gaussian with standard deviation 5 km.
the wind fit polynomial coefficients are also allowed to vary within their Gaussian uncertainties following T18 Table 1.
this model has wind polynomial cofficients a, b, c:    -2.590024e+02    2.082837e-01   -1.421139e-05
mu=sin(phi), phi [radians], and lat_deg [degrees] refer to planetocentric latitude; lat_pg_deg gives planetographic latitude in degrees.
              mu          phi_rad          lat_deg       lat_pg_deg          psi_rad    omega_rad_s-1             r_km 
   -1.0000000000     1.5707963268    90.0000000000    90.0000000000     0.0000000000     0.0005408237 23680.5293025169
   -0.9998144712     1.5515331758    88.8963027451    89.5410467836     0.0112529063     0.0005399074 23683.1001217888
   -0.9996289425     1.5435536961    88.4391122386    89.3480293054     0.0158635954     0.0005389676 23685.6633549135
   -0.9994434137     1.5374305386    88.0882811581    89.1979512902     0.0193673974     0.0005380312 23688.2189799094
   -0.9992578850     1.5322682374    87.7925030866    89.0697885247     0.0222928364     0.0005370973 23690.7669923869
   -0.9990723562     1.5277199472    87.5319052508    88.9554270054     0.0248451416     0.0005361632 23693.3074397504
   -0.9988868275     1.5236077873    87.2962958471    88.8507646016     0.0271305979     0.0005352350 23695.8403366726
   -0.9987012987     1.5198260904    87.0796205724    88.7532834221     0.0292109273     0.0005342996 23698.3656847675
   -0.9985157699     1.5163060092    86.8779347757    88.6614589214     0.0311283686     0.0005333679 23700.8834803760
   -0.9983302412     1.5129997231    86.6884985354    88.5741884684     0.0329114980     0.0005324382 23703.3937312550
   -0.9981447124     1.5098724146    86.5093169626    88.4906756875     0.0345812334     0.0005315100 23705.8964652234
   -0.9979591837     1.5068978001    86.3388841007    88.4103249875     0.0361534637     0.0005305832 23708.3916908113
   -0.9959183673     1.4804147767    84.8215186329    87.6491837135     0.0493520658     0.0005204594 23735.3471789345
   -0.9938775510     1.4600831244    83.6566007642    86.9980158912     0.0583186956     0.0005104682 23761.4122296732
   -0.9918367347     1.4429339318    82.6740244067    86.3951542856     0.0649459683     0.0005006092 23786.6030162243
   -0.9897959184     1.4278174270    81.8079124837    85.8186502403     0.0700005793     0.0004908817 23810.9370124877
   -0.9877551020     1.4141440401    81.0244851196    85.2583390070     0.0738946904     0.0004812882 23834.4316488835
   -0.9857142857     1.4015635991    80.3036789465    84.7086944552     0.0768820242     0.0004718216 23857.1047845353
   -0.9836734694     1.3898479862    79.6324237728    84.1666201718     0.0791366561     0.0004624813 23878.9748053278
   -0.9816326531     1.3788387766    79.0016425268    83.6304203032     0.0807874125     0.0004532731 23900.0602103707
   -0.9795918367     1.3684206412    78.4047273409    83.0988132749     0.0819272549     0.0004441864 23920.3796836333
   -0.9775510204     1.3585065303    77.8366906282    82.5713078022     0.0826346585     0.0004352274 23939.9520554147
   -0.9755102041     1.3490288258    77.2936581616    82.0475054682     0.0829702876     0.0004263928 23958.7963807302
   -0.9734693878     1.3399337634    76.7725494708    81.5272390455     0.0829849880     0.0004176814 23976.9316926798
   -0.9714285714     1.3311777582    76.2708673246    81.0104891506     0.0827220062     0.0004090929 23994.3771268346
   -0.9693877551     1.3227248956    75.7865539757    80.4973089824     0.0822181851     0.0004006268 24011.1517051055
   -0.9673469388     1.3145451659    75.3178899826    79.9876729604     0.0815030883     0.0003922767 24027.2744465667
   -0.9653061224     1.3066131882    74.8634211408    79.4476192146     0.0800093500     0.0003825957 24042.7401647318
   -0.9632653061     1.2989072697    74.4219045316    78.8481647210     0.0772528139     0.0003703589 24057.3401692479
   -0.9612244898     1.2914086960    73.9922679079    78.2735932823     0.0747232241     0.0003591281 24071.0761554516
   -0.9591836735     1.2841011890    73.5735785965    77.7221454900     0.0724061515     0.0003488102 24084.0411618787
   -0.9571428571     1.2769704845    73.1650193268    77.1910604875     0.0702676741     0.0003392741 24096.3143772623
   -0.9551020408     1.2700040004    72.7658691871    76.6783801997     0.0682861992     0.0003304268 24107.9634410038
   -0.9530612245     1.2631905710    72.3754884407    76.1825322319     0.0664454489     0.0003221945 24119.0469204983
   -0.9510204082     1.2565202341    71.9933062850    75.7021914058     0.0647322569     0.0003145164 24129.6156049379
   -0.9489795918     1.2499840563    71.6188108859    75.2361215926     0.0631339819     0.0003073369 24139.7139464159
   -0.9469387755     1.2435739909    71.2515411916    74.7830824960     0.0616370234     0.0003006012 24149.3810123772
   -0.9448979592     1.2372827589    70.8910801509    74.3421113843     0.0602318576     0.0002942677 24158.6512830249
   -0.9428571429     1.2311037506    70.5370490537    73.9123456967     0.0589100397     0.0002882996 24167.5553935733
   -0.9408163265     1.2250309424    70.1891027733    73.4930105240     0.0576640684     0.0002826644 24176.1206192603
   -0.9387755102     1.2190588266    69.8469257429    73.0834550273     0.0564880924     0.0002773354 24184.3714151315
   -0.9367346939     1.2131823517    69.5102285299    72.6831016050     0.0553770819     0.0002722894 24192.3296981459
   -0.9346938776     1.2073968710    69.1787449051    72.2912948831     0.0543242452     0.0002674998 24200.0152207437
   -0.9326530612     1.2016980990    68.8522293213    71.9075120062     0.0533247424     0.0002629461 24207.4459318353
   -0.9306122449     1.1960820730    68.5304547326    71.5312777202     0.0523742414     0.0002586097 24214.6381147923
   -0.9285714286     1.1905451201    68.2132107017    71.1621589502     0.0514688564     0.0002544741 24221.6064820044
   -0.9265306122     1.1850838286    67.9003017483    70.7999616028     0.0506086116     0.0002505336 24228.3644931641
   -0.9244897959     1.1796950225    67.5915459031    70.4441532146     0.0497873899     0.0002467671 24234.9244740142
   -0.9224489796     1.1743757395    67.2867734365    70.0943643914     0.0490017062     0.0002431605 24241.2977738801
   -0.9204081633     1.1691232113    66.9858257369    69.7504016479     0.0482509521     0.0002397082 24247.4947697021
   -0.9183673469     1.1639348463    66.6885543185    69.4120118925     0.0475333017     0.0002364014 24253.5249533193
   -0.9163265306     1.1588082142    66.3948199388    69.0787811634     0.0468439604     0.0002332239 24259.3971014981
   -0.9142857143     1.1537410325    66.1044918138    68.7506398731     0.0461839961     0.0002301753 24265.1195548598
   -0.9122448980     1.1487311539    65.8174469161    68.4272813544     0.0455502039     0.0002272443 24270.6997161283
   -0.9102040816     1.1437765557    65.5335693460    68.1084454056     0.0449400651     0.0002244213 24276.1447063673
   -0.9081632653     1.1388753294    65.2527497676    67.7941101914     0.0443551069     0.0002217081 24281.4610010564
   -0.9061224490     1.1340256726    64.9748848997    67.4838628204     0.0437899256     0.0002190878 24286.6546500718
   -0.9040816327     1.1292258803    64.6998770572    67.1777899244     0.0432477381     0.0002165671 24291.7313193189
   -0.9020408163     1.1244743380    64.4276337361    66.8754843090     0.0427230521     0.0002141292 24296.6962858280
   -0.9000000000     1.1197695150    64.1580672368    66.5770146611     0.0422185970     0.0002117798 24301.5544825910
   -0.8979591837     1.1151099586    63.8910943224    66.2820372219     0.0417298258     0.0002095047 24306.3105437111
   -0.8959183673     1.1104942885    63.6266359071    65.9906258198     0.0412594075     0.0002073099 24310.9688077380
   -0.8938775510     1.1059211919    63.3646167727    65.7024452842     0.0408028049     0.0002051814 24315.5333462282
   -0.8918367347     1.1013894190    63.1049653087    65.4175915997     0.0403629431     0.0002031260 24320.0080238298
   -0.8897959184     1.0968977787    62.8476132749    65.1357687933     0.0399358476     0.0002011315 24324.3963993038
   -0.8877551020     1.0924451350    62.5924955840    64.8569897122     0.0395228784     0.0001992007 24328.7019144496
   -0.8857142857     1.0880304035    62.3395501007    64.5811064000     0.0391225378     0.0001973281 24332.9277584503
   -0.8836734694     1.0836525480    62.0887174586    64.3079928516     0.0387336626     0.0001955098 24337.0769567201
   -0.8816326531     1.0793105778    61.8399408902    64.0376714764     0.0383576348     0.0001937485 24341.1524100652
   -0.8795918367     1.0750035447    61.5931660703    63.7699274984     0.0379916540     0.0001920355 24345.1567931886
   -0.8775510204     1.0707305406    61.3483409720    63.5047550463     0.0376365256     0.0001903724 24349.0926245225
   -0.8755102041     1.0664906953    61.1054157324    63.2420795605     0.0372918188     0.0001887572 24352.9623527279
   -0.8734693878     1.0622831742    60.8643425293    62.9817639099     0.0369559747     0.0001871847 24356.7682620491
   -0.8714285714     1.0581071761    60.6250754655    62.7238118287     0.0366298597     0.0001856568 24360.5125315145
   -0.8693877551     1.0539619319    60.3875704629    62.4681347264     0.0363126967     0.0001841706 24364.1972659794
   -0.8673469388     1.0498467020    60.1517851626    62.2146265453     0.0360033741     0.0001827223 24367.8244148642
   -0.8653061224     1.0457607758    59.9176788330    61.9632707639     0.0357023143     0.0001813126 24371.3958844365
   -0.8632653061     1.0417034691    59.6852122830    61.7140244926     0.0354094530     0.0001799408 24374.9134220614
   -0.8612244898     1.0376741234    59.4543477825    61.4667787852     0.0351235470     0.0001786028 24378.3787671741
   -0.8591836735     1.0336721045    59.2250489867    61.2214839834     0.0348443640     0.0001772975 24381.7935127037
   -0.8571428571     1.0296968008    58.9972808661    60.9781603406     0.0345728689     0.0001760272 24385.1592147538
   -0.8551020408     1.0257476230    58.7710096411    60.7366963141     0.0343077045     0.0001747876 24388.4773762406
   -0.8530612245     1.0218240020    58.5462027200    60.4970394575     0.0340485242     0.0001735773 24391.7493736824
   -0.8510204082     1.0179253889    58.3228286418    60.2591470864     0.0337951322     0.0001723953 24394.9765289714
   -0.8489795918     1.0140512533    58.1008570218    60.0230344335     0.0335483246     0.0001712435 24398.1602094840
   -0.8469387755     1.0102010827    57.8802585008    59.7886050437     0.0333069304     0.0001701183 24401.3016255747
   -0.8448979592     1.0063743820    57.6610046973    59.5558165484     0.0330707055     0.0001690186 24404.4019804812
   -0.8428571429     1.0025706719    57.4430681625    59.3246320121     0.0328394843     0.0001679435 24407.4624105820
   -0.8408163265     0.9987894889    57.2264223382    59.0950334488     0.0326134163     0.0001668933 24410.4839566163
   -0.8387755102     0.9950303845    57.0110415164    58.8669957963     0.0323925130     0.0001658677 24413.4676583748
   -0.8367346939     0.9912929239    56.7969008020    58.6404550902     0.0321760923     0.0001648644 24416.4145889392
   -0.8346938776     0.9875766864    56.5839760772    58.4153791561     0.0319640137     0.0001638827 24419.3256767462
   -0.8326530612     0.9838812640    56.3722439680    58.1917368443     0.0317561414     0.0001629220 24422.2018434478
   -0.8306122449     0.9802062611    56.1616818123    57.9694979804     0.0315523444     0.0001619816 24425.0439550298
   -0.8285714286     0.9765512941    55.9522676300    57.7486649895     0.0313530486     0.0001610627 24427.8528988908
   -0.8265306122     0.9729159908    55.7439800947    57.5291773017     0.0311575691     0.0001601630 24430.6295066395
   -0.8244897959     0.9692999900    55.5367985066    57.3110056283     0.0309657559     0.0001592817 24433.3745354040
   -0.8224489796     0.9657029407    55.3307027670    57.0941234732     0.0307774974     0.0001584184 24436.0887826639
   -0.8204081633     0.9621245024    55.1256733545    56.8785051219     0.0305926856     0.0001575726 24438.7729522024
   -0.8183673469     0.9585643440    54.9216913014    56.6641256247     0.0304112159     0.0001567438 24441.4277414690
   -0.8163265306     0.9550221437    54.7187381727    56.4509620349     0.0302330098     0.0001559315 24444.0538703454
   -0.8142857143     0.9514975886    54.5167960447    56.2390098495     0.0300583013     0.0001551364 24446.6519871883
   -0.8122448980     0.9479903746    54.3158474857    56.0282242044     0.0298866118     0.0001543567 24449.2227094925
   -0.8102040816     0.9445002057    54.1158755372    55.8185830139     0.0297178517     0.0001535922 24451.7666438805
   -0.8081632653     0.9410267938    53.9168636960    55.6100648191     0.0295519345     0.0001528423 24454.2843960247
   -0.8061224490     0.9375698586    53.7187958976    55.4026487611     0.0293887766     0.0001521067 24456.7765491152
   -0.8040816327     0.9341291270    53.5216564995    55.1963145583     0.0292282970     0.0001513850 24459.2436552771
   -0.8020408163     0.9307043332    53.3254302661    54.9910424854     0.0290704173     0.0001506769 24461.6862391280
   -0.8000000000     0.9272952180    53.1301023542    54.7868133567     0.0289150617     0.0001499819 24464.1048174945
   -0.7979591837     0.9239015290    52.9356582985    54.5836085041     0.0287621570     0.0001492997 24466.4998829762
   -0.7959183673     0.9205230201    52.7420839987    54.3814097601     0.0286116320     0.0001486301 24468.8719142884
   -0.7938775510     0.9171594514    52.5493657065    54.1802080051     0.0284635677     0.0001479731 24471.2213947036
   -0.7918367347     0.9138105888    52.3574900132    53.9799781362     0.0283177598     0.0001473280 24473.5487714503
   -0.7897959184     0.9104762040    52.1664438387    53.7807017340     0.0281741152     0.0001466944 24475.8544799114
   -0.7877551020     0.9071560743    51.9762144194    53.5823625195     0.0280325726     0.0001460720 24478.1389447642
   -0.7857142857     0.9038499823    51.7867892983    53.3849446310     0.0278930725     0.0001454606 24480.4025804597
   -0.7836734694     0.9005577156    51.5981563144    53.1884326095     0.0277555574     0.0001448598 24482.6457851996
   -0.7816326531     0.8972790671    51.4103035930    52.9928113848     0.0276199714     0.0001442695 24484.8689407379
   -0.7795918367     0.8940138344    51.2232195364    52.7980662633     0.0274862606     0.0001436893 24487.0724179587
   -0.7775510204     0.8907618196    51.0368928148    52.6041829181     0.0273543726     0.0001431190 24489.2565941860
   -0.7755102041     0.8875228296    50.8513123577    52.4111473706     0.0272242568     0.0001425584 24491.4218062614
   -0.7734693878     0.8842966755    50.6664673458    52.2189459853     0.0270958638     0.0001420073 24493.5683974479
   -0.7714285714     0.8810831728    50.4823472028    52.0275654582     0.0269691462     0.0001414654 24495.6967164727
   -0.7693877551     0.8778821410    50.2989415880    51.8369928027     0.0268440578     0.0001409324 24497.8070845827
   -0.7673469388     0.8746934035    50.1162403889    51.6472153428     0.0267205537     0.0001404083 24499.8998297714
   -0.7653061224     0.8715167878    49.9342337142    51.4582206977     0.0265985906     0.0001398927 24501.9752353003
   -0.7632653061     0.8683521249    49.7529118872    51.2699967782     0.0264781264     0.0001393855 24504.0335907907
   -0.7612244898     0.8651992496    49.5722654391    51.0825317785     0.0263591202     0.0001388865 24506.0751953026
   -0.7591836735     0.8620580001    49.3922851027    50.8958141637     0.0262415325     0.0001383955 24508.1003306866
   -0.7571428571     0.8589282182    49.2129618067    50.7098326626     0.0261253249     0.0001379123 24510.1092696906
   -0.7551020408     0.8558097488    49.0342866700    50.5245762584     0.0260104601     0.0001374368 24512.1022653249
   -0.7530612245     0.8527024401    48.8562509955    50.3400341837     0.0258969020     0.0001369687 24514.0795753992
   -0.7510204082     0.8496061434    48.6788462656    50.1561959129     0.0257846155     0.0001365080 24516.0414604468
   -0.7489795918     0.8465207132    48.5020641364    49.9730511532     0.0256735667     0.0001360544 24517.9881668139
   -0.7469387755     0.8434460067    48.3258964330    49.7905898388     0.0255637225     0.0001356078 24519.9199429484
   -0.7448979592     0.8403818842    48.1503351447    49.6088021209     0.0254550508     0.0001351680 24521.8370049325
   -0.7428571429     0.8373282086    47.9753724206    49.4276783655     0.0253475205     0.0001347349 24523.7395748962
   -0.7408163265     0.8342848456    47.8010005647    49.2472091455     0.0252411014     0.0001343084 24525.6278673657
   -0.7387755102     0.8312516635    47.6272120320    49.0673852365     0.0251357642     0.0001338882 24527.5021027401
   -0.7367346939     0.8282285332    47.4539994242    48.8881976098     0.0250314805     0.0001334744 24529.3625018048
   -0.7346938776     0.8252153280    47.2813554856    48.7096374244     0.0249282225     0.0001330666 24531.2092586871
   -0.7326530612     0.8222119238    47.1092730996    48.5316960255     0.0248259634     0.0001326649 24533.0425796490
   -0.7306122449     0.8192181987    46.9377452847    48.3543649363     0.0247246772     0.0001322690 24534.8626536970
   -0.7285714286     0.8162340331    46.7667651908    48.1776358535     0.0246243384     0.0001318789 24536.6696591932
   -0.7265306122     0.8132593097    46.5963260961    48.0015006452     0.0245249224     0.0001314945 24538.4637861349
   -0.7244897959     0.8102939134    46.4264214035    47.8259513433     0.0244264054     0.0001311155 24540.2452139962
   -0.7224489796     0.8073377312    46.2570446372    47.6509801397     0.0243287641     0.0001307420 24542.0141142293
   -0.7204081633     0.8043906520    46.0881894401    47.4765829644     0.0242320383     0.0001303740 24543.7706619052
   -0.7183673469     0.8014525670    45.9198495701    47.3027501153     0.0241361677     0.0001300113 24545.5150270073
   -0.7163265306     0.7985233692    45.7520188977    47.1294729162     0.0240411079     0.0001296536 24547.2473633186
   -0.7142857143     0.7956029535    45.5846914028    46.9567441494     0.0239468379     0.0001293010 24548.9678275380
   -0.7122448980     0.7926912167    45.4178611722    46.7845567380     0.0238533375     0.0001289532 24550.6765792824
   -0.7102040816     0.7897880574    45.2515223968    46.6129037422     0.0237605869     0.0001286103 24552.3737800696
   -0.7081632653     0.7868933760    45.0856693690    46.4417783542     0.0236685668     0.0001282720 24554.0595776644
   -0.7061224490     0.7840070746    44.9202964804    46.2711738944     0.0235772587     0.0001279384 24555.7341081937
   -0.7040816327     0.7811290570    44.7553982192    46.1010838103     0.0234866443     0.0001276093 24557.3975096633
   -0.7020408163     0.7782592286    44.5909691678    45.9315016727     0.0233967059     0.0001272846 24559.0499223309
   -0.7000000000     0.7753974966    44.4270040008    45.7624211723     0.0233074265     0.0001269643 24560.6914883070
   -0.6979591837     0.7725437695    44.2634974825    45.5938361162     0.0232187893     0.0001266482 24562.3223407722
