shape model output for Neptune's 1-bar isobaric surface. models are described in Mankovich et al. 2026, PSJ.
the models summarized in this file assume the symmetric H-band 2014 wind profile from Tollefson et al. (2018, Icarus 311) Table 1.
the distribution of models in this file comes from Markov chain Monte Carlo fits to the Voyager 2 radio occultation reported in Lindal (1992, AJ 103).
these solutions vary the polar radius to fit the Voyager 2 radio occultation to a Gaussian with standard deviation 5 km.
the wind fit polynomial coefficients are also allowed to vary within their Gaussian uncertainties following T18 Table 1.
this model has wind polynomial cofficients a, b, c:    -2.548439e+02    1.853694e-01    6.347761e-06
mu=sin(phi), phi [radians], and lat_deg [degrees] refer to planetocentric latitude; lat_pg_deg gives planetographic latitude in degrees.
              mu          phi_rad          lat_deg       lat_pg_deg          psi_rad    omega_rad_s-1             r_km 
   -1.0000000000     1.5707963268    90.0000000000    90.0000000000     0.0000000000     0.0004408679 23897.8480096135
   -0.9998144712     1.5515331758    88.8963027451    89.3403155123     0.0077494847     0.0004401635 23899.6345763744
   -0.9996289425     1.5435536961    88.4391122386    89.0650998477     0.0109255449     0.0004394409 23901.4158984574
   -0.9994434137     1.5374305386    88.0882811581    88.8525900691     0.0133397070     0.0004387209 23903.1919844349
   -0.9992578850     1.5322682374    87.7925030866    88.6723291392     0.0153558615     0.0004380028 23904.9628296943
   -0.9990723562     1.5277199472    87.5319052508    88.5125401723     0.0171153081     0.0004372846 23906.7284587440
   -0.9988868275     1.5236077873    87.2962958471    88.3672220861     0.0186911889     0.0004365709 23908.4888846239
   -0.9987012987     1.5198260904    87.0796205724    88.2327582008     0.0201260483     0.0004358517 23910.2440829253
   -0.9985157699     1.5163060092    86.8779347757    88.1068670096     0.0214489138     0.0004351354 23911.9940817249
   -0.9983302412     1.5129997231    86.6884985354    87.9879358450     0.0226794595     0.0004344205 23913.7389070372
   -0.9981447124     1.5098724146    86.5093169626    87.8747948195     0.0238320845     0.0004337069 23915.4785647520
   -0.9979591837     1.5068978001    86.3388841007    87.7665644833     0.0249177233     0.0004329943 23917.2130570346
   -0.9959183673     1.4804147767    84.8215186329    86.7723568328     0.0340485498     0.0004252103 23935.9547236050
   -0.9938775510     1.4600831244    83.6566007642    85.9644742100     0.0402799903     0.0004175282 23954.0867728998
   -0.9918367347     1.4429339318    82.6740244067    85.2473755377     0.0449134500     0.0004099478 23971.6229711415
   -0.9897959184     1.4278174270    81.8079124837    84.5853637192     0.0484756689     0.0004024686 23988.5773926198
   -0.9877551020     1.4141440401    81.0244851196    83.9608612852     0.0512494322     0.0003950923 24004.9637259773
   -0.9857142857     1.4015635991    80.3036789465    83.3637688153     0.0534086436     0.0003878136 24020.7959741454
   -0.9836734694     1.3898479862    79.6324237728    82.7878351508     0.0550723178     0.0003806320 24036.0879877828
   -0.9816326531     1.3788387766    79.0016425268    82.2290115210     0.0563282151     0.0003735520 24050.8536708082
   -0.9795918367     1.3684206412    78.4047273409    81.6843188217     0.0572396695     0.0003665654 24065.1068492710
   -0.9775510204     1.3585065303    77.8366906282    81.1518111064     0.0578597674     0.0003596770 24078.8612218012
   -0.9755102041     1.3490288258    77.2936581616    80.6299625291     0.0582294961     0.0003528843 24092.1304405033
   -0.9734693878     1.3399337634    76.7725494708    80.1176520813     0.0583830544     0.0003461862 24104.9279647633
   -0.9714285714     1.3311777582    76.2708673246    79.6140418079     0.0583494022     0.0003395827 24117.2672165834
   -0.9693877551     1.3227248956    75.7865539757    79.1184820155     0.0581531147     0.0003330732 24129.1614081210
   -0.9673469388     1.3145451659    75.3178899826    78.6303812519     0.0578138791     0.0003266531 24140.6235266818
   -0.9653061224     1.3066131882    74.8634211408    78.1255561940     0.0569349973     0.0003191172 24151.6496067878
   -0.9632653061     1.2989072697    74.4219045316    77.5828632848     0.0551691378     0.0003094241 24162.0929599535
   -0.9612244898     1.2914086960    73.9922679079    77.0605087695     0.0535509053     0.0003005306 24171.9522223899
   -0.9591836735     1.2841011890    73.5735785965    76.5570248230     0.0520709597     0.0002923626 24181.2898655981
   -0.9571428571     1.2769704845    73.1650193268    76.0703117079     0.0507069178     0.0002848157 24190.1590867857
   -0.9551020408     1.2700040004    72.7658691871    75.5988362731     0.0494446033     0.0002778161 24198.6053140715
   -0.9530612245     1.2631905710    72.3754884407    75.1413489223     0.0482733721     0.0002713050 24206.6679410469
   -0.9510204082     1.2565202341    71.9933062850    74.6967872303     0.0471846438     0.0002652341 24214.3810874926
   -0.9489795918     1.2499840563    71.6188108859    74.2641666696     0.0461701683     0.0002595591 24221.7747223763
   -0.9469387755     1.2435739909    71.2515411916    73.8425149884     0.0452210236     0.0002542366 24228.8750531299
   -0.9448979592     1.2372827589    70.8910801509    73.4310595924     0.0443310042     0.0002492334 24235.7052931285
   -0.9428571429     1.2311037506    70.5370490537    73.0291067090     0.0434946112     0.0002445202 24242.2860970290
   -0.9408163265     1.2250309424    70.1891027733    72.6360315115     0.0427069630     0.0002400712 24248.6358372021
   -0.9387755102     1.2190588266    69.8469257429    72.2513015322     0.0419642740     0.0002358652 24254.7708536541
   -0.9367346939     1.2131823517    69.5102285299    71.8744415717     0.0412633018     0.0002318838 24260.7061348081
   -0.9346938776     1.2073968710    69.1787449051    71.5049303886     0.0405995957     0.0002281059 24266.4548936674
   -0.9326530612     1.2016980990    68.8522293213    71.1423422340     0.0399700106     0.0002245150 24272.0292067636
   -0.9306122449     1.1960820730    68.5304547326    70.7862888583     0.0393717329     0.0002210965 24277.4400236880
   -0.9285714286     1.1905451201    68.2132107017    70.4364153395     0.0388022409     0.0002178372 24282.6973368785
   -0.9265306122     1.1850838286    67.9003017483    70.0925334635     0.0382616614     0.0002147326 24287.8101960951
   -0.9244897959     1.1796950225    67.5915459031    69.7542288827     0.0377459387     0.0002117659 24292.7869341457
   -0.9224489796     1.1743757395    67.2867734365    69.4212013111     0.0372527941     0.0002089261 24297.6351938755
   -0.9204081633     1.1691232113    66.9858257369    69.0932734575     0.0367819015     0.0002062085 24302.3619805695
   -0.9183673469     1.1639348463    66.6885543185    68.7702304041     0.0363321017     0.0002036062 24306.9737490655
   -0.9163265306     1.1588082142    66.3948199388    68.4517498567     0.0359001996     0.0002011063 24311.4764885385
   -0.9142857143     1.1537410325    66.1044918138    68.1377470487     0.0354869984     0.0001987087 24315.8757732887
   -0.9122448980     1.1487311539    65.8174469161    67.8279774170     0.0350903770     0.0001964041 24320.1766634819
   -0.9102040816     1.1437765557    65.5335693460    67.5222299430     0.0347086751     0.0001941851 24324.3839186941
   -0.9081632653     1.1388753294    65.2527497676    67.2204588550     0.0343430023     0.0001920530 24328.5019572513
   -0.9061224490     1.1340256726    64.9748848997    66.9223518392     0.0339897102     0.0001899945 24332.5348909523
   -0.9040816327     1.1292258803    64.6998770572    66.6279409332     0.0336510628     0.0001880148 24336.4865734690
   -0.9020408163     1.1244743380    64.4276337361    66.3369203873     0.0333233384     0.0001861007 24340.3605977311
   -0.9000000000     1.1197695150    64.1580672368    66.0493128847     0.0330084635     0.0001842565 24344.1602863824
   -0.8979591837     1.1151099586    63.8910943224    65.7648585198     0.0327033547     0.0001824713 24347.8888142859
   -0.8959183673     1.1104942885    63.6266359071    65.4835861160     0.0324098952     0.0001807495 24351.5491089435
   -0.8938775510     1.1059211919    63.3646167727    65.2052435866     0.0321249982     0.0001790802 24355.1439492488
   -0.8918367347     1.1013894190    63.1049653087    64.9298772896     0.0318507226     0.0001774687 24358.6759322841
   -0.8897959184     1.0968977787    62.8476132749    64.6572638694     0.0315843612     0.0001759055 24362.1475454020
   -0.8877551020     1.0924451350    62.5924955840    64.3873941401     0.0313268895     0.0001743925 24365.5610296786
   -0.8857142857     1.0880304035    62.3395501007    64.1201485787     0.0310773061     0.0001729256 24368.9185816471
   -0.8836734694     1.0836525480    62.0887174586    63.8554235064     0.0308348374     0.0001715015 24372.2223359125
   -0.8816326531     1.0793105778    61.8399408902    63.5932188401     0.0306004729     0.0001701226 24375.4741922843
   -0.8795918367     1.0750035447    61.5931660703    63.3333706570     0.0303722997     0.0001687819 24378.6759764241
   -0.8775510204     1.0707305406    61.3483409720    63.0758605757     0.0301509050     0.0001674805 24381.8294554735
   -0.8755102041     1.0664906953    61.1054157324    62.8206231529     0.0299360168     0.0001662170 24384.9362851126
   -0.8734693878     1.0622831742    60.8643425293    62.5675499238     0.0297265769     0.0001649872 24387.9980537413
   -0.8714285714     1.0581071761    60.6250754655    62.3166309342     0.0295232124     0.0001637927 24391.0162277109
   -0.8693877551     1.0539619319    60.3875704629    62.0677924806     0.0293254064     0.0001626310 24393.9921978841
   -0.8673469388     1.0498467020    60.1517851626    61.8209490921     0.0291324063     0.0001614994 24396.9273891926
   -0.8653061224     1.0457607758    59.9176788330    61.5760781313     0.0289445281     0.0001603981 24399.8230094936
   -0.8632653061     1.0417034691    59.6852122830    61.3331390561     0.0287617480     0.0001593269 24402.6803249259
   -0.8612244898     1.0376741234    59.4543477825    61.0920455155     0.0285832176     0.0001582822 24405.5005007982
   -0.8591836735     1.0336721045    59.2250489867    60.8527529104     0.0284087927     0.0001572634 24408.2846232734
   -0.8571428571     1.0296968008    58.9972808661    60.6152659609     0.0282391672     0.0001562722 24411.0337796958
   -0.8551020408     1.0257476230    58.7710096411    60.3794974725     0.0280734086     0.0001553053 24413.7489957833
   -0.8530612245     1.0218240020    58.5462027200    60.1454018832     0.0279112908     0.0001543614 24416.4312062856
   -0.8510204082     1.0179253889    58.3228286418    59.9129407739     0.0277526922     0.0001534398 24419.0813783767
   -0.8489795918     1.0140512533    58.1008570218    59.6821166633     0.0275981871     0.0001525421 24421.7003513087
   -0.8469387755     1.0102010827    57.8802585008    59.4528539686     0.0274469687     0.0001516653 24424.2889884609
   -0.8448979592     1.0063743820    57.6610046973    59.2251152908     0.0272988797     0.0001508086 24426.8481411289
   -0.8428571429     1.0025706719    57.4430681625    58.9988672835     0.0271538172     0.0001499714 24429.3785627184
   -0.8408163265     0.9987894889    57.2264223382    58.7740901866     0.0270118997     0.0001491538 24431.8809911525
   -0.8387755102     0.9950303845    57.0110415164    58.5507595041     0.0268731484     0.0001483555 24434.3561488723
   -0.8367346939     0.9912929239    56.7969008020    58.3288235266     0.0267370954     0.0001475748 24436.8047382721
   -0.8346938776     0.9875766864    56.5839760772    58.1082531333     0.0266036533     0.0001468111 24439.2274281836
   -0.8326530612     0.9838812640    56.3722439680    57.8890201147     0.0264727378     0.0001460640 24441.6248545779
   -0.8306122449     0.9802062611    56.1616818123    57.6710971350     0.0263442672     0.0001453328 24443.9976164219
   -0.8285714286     0.9765512941    55.9522676300    57.4544800742     0.0262185532     0.0001446186 24446.3462928063
   -0.8265306122     0.9729159908    55.7439800947    57.2391204813     0.0260951225     0.0001439195 24448.6714697669
   -0.8244897959     0.9692999900    55.5367985066    57.0249921530     0.0259738790     0.0001432349 24450.9736952709
   -0.8224489796     0.9657029407    55.3307027670    56.8120710064     0.0258547532     0.0001425644 24453.2534918635
   -0.8204081633     0.9621245024    55.1256733545    56.6003336676     0.0257376778     0.0001419077 24455.5113634926
   -0.8183673469     0.9585643440    54.9216913014    56.3897574445     0.0256225878     0.0001412644 24457.7477953830
   -0.8163265306     0.9550221437    54.7187381727    56.1803211997     0.0255094361     0.0001406341 24459.9632796179
   -0.8142857143     0.9514975886    54.5167960447    55.9720170195     0.0253983974     0.0001400172 24462.1582379417
   -0.8122448980     0.9479903746    54.3158474857    55.7648084871     0.0252891402     0.0001394126 24464.3331361204
   -0.8102040816     0.9445002057    54.1158755372    55.5586754533     0.0251816090     0.0001388198 24466.4883944243
   -0.8081632653     0.9410267938    53.9168636960    55.3535983258     0.0250757498     0.0001382386 24468.6244026507
   -0.8061224490     0.9375698586    53.7187958976    55.1495580565     0.0249715105     0.0001376685 24470.7415836690
   -0.8040816327     0.9341291270    53.5216564995    54.9465361121     0.0248688407     0.0001371094 24472.8403074897
   -0.8020408163     0.9307043332    53.3254302661    54.7445144596     0.0247676915     0.0001365610 24474.9209365980
   -0.8000000000     0.9272952180    53.1301023542    54.5434755505     0.0246680158     0.0001360229 24476.9838337860
   -0.7979591837     0.9239015290    52.9356582985    54.3434023018     0.0245697679     0.0001354948 24479.0293567110
   -0.7959183673     0.9205230201    52.7420839987    54.1442780784     0.0244729034     0.0001349766 24481.0578392055
   -0.7938775510     0.9171594514    52.5493657065    53.9460927870     0.0243774863     0.0001344683 24483.0695911303
   -0.7918367347     0.9138105888    52.3574900132    53.7488250242     0.0242833769     0.0001339694 24485.0649298408
   -0.7897959184     0.9104762040    52.1664438387    53.5524582305     0.0241905146     0.0001334795 24487.0441504814
   -0.7877551020     0.9071560743    51.9762144194    53.3569774558     0.0240988612     0.0001329984 24489.0075649325
   -0.7857142857     0.9038499823    51.7867892983    53.1623681236     0.0240083796     0.0001325259 24490.9554621604
   -0.7836734694     0.9005577156    51.5981563144    52.9686160193     0.0239190341     0.0001320618 24492.8881145443
   -0.7816326531     0.8972790671    51.4103035930    52.7757072778     0.0238307899     0.0001316058 24494.8057784868
   -0.7795918367     0.8940138344    51.2232195364    52.5836283755     0.0237436134     0.0001311578 24496.7087237149
   -0.7775510204     0.8907618196    51.0368928148    52.3923661173     0.0236574721     0.0001307176 24498.5972182661
   -0.7755102041     0.8875228296    50.8513123577    52.2019076219     0.0235723342     0.0001302850 24500.4714918414
   -0.7734693878     0.8842966755    50.6664673458    52.0122403174     0.0234881693     0.0001298598 24502.3317854055
   -0.7714285714     0.8810831728    50.4823472028    51.8233519280     0.0234049477     0.0001294418 24504.1783250736
   -0.7693877551     0.8778821410    50.2989415880    51.6352304665     0.0233226407     0.0001290308 24506.0113347281
   -0.7673469388     0.8746934035    50.1162403889    51.4478642253     0.0232412203     0.0001286267 24507.8310428490
   -0.7653061224     0.8715167878    49.9342337142    51.2612417657     0.0231606597     0.0001282294 24509.6376581192
   -0.7632653061     0.8683521249    49.7529118872    51.0753519108     0.0230809326     0.0001278386 24511.4313844364
   -0.7612244898     0.8651992496    49.5722654391    50.8901837384     0.0230020136     0.0001274543 24513.2124305693
   -0.7591836735     0.8620580001    49.3922851027    50.7057265714     0.0229238782     0.0001270762 24514.9809919365
   -0.7571428571     0.8589282182    49.2129618067    50.5219699703     0.0228465024     0.0001267042 24516.7372489882
   -0.7551020408     0.8558097488    49.0342866700    50.3389037283     0.0227698631     0.0001263382 24518.4813921241
   -0.7530612245     0.8527024401    48.8562509955    50.1565178626     0.0226939380     0.0001259781 24520.2136034580
   -0.7510204082     0.8496061434    48.6788462656    49.9748026079     0.0226187051     0.0001256237 24521.9340586110
   -0.7489795918     0.8465207132    48.5020641364    49.7937484108     0.0225441435     0.0001252749 24523.6429320782
   -0.7469387755     0.8434460067    48.3258964330    49.6133459217     0.0224702325     0.0001249315 24525.3403840015
   -0.7448979592     0.8403818842    48.1503351447    49.4335859907     0.0223969524     0.0001245935 24527.0265730089
   -0.7428571429     0.8373282086    47.9753724206    49.2544596616     0.0223242838     0.0001242607 24528.7016582787
   -0.7408163265     0.8342848456    47.8010005647    49.0759581666     0.0222522080     0.0001239331 24530.3657986940
   -0.7387755102     0.8312516635    47.6272120320    48.8980729197     0.0221807068     0.0001236104 24532.0191425861
   -0.7367346939     0.8282285332    47.4539994242    48.7207955118     0.0221097627     0.0001232927 24533.6618304990
   -0.7346938776     0.8252153280    47.2813554856    48.5441177067     0.0220393584     0.0001229797 24535.2940023282
   -0.7326530612     0.8222119238    47.1092730996    48.3680314359     0.0219694775     0.0001226715 24536.9157974550
   -0.7306122449     0.8192181987    46.9377452847    48.1925287941     0.0219001036     0.0001223678 24538.5273547481
   -0.7285714286     0.8162340331    46.7667651908    48.0176020349     0.0218312213     0.0001220686 24540.1288125666
   -0.7265306122     0.8132593097    46.5963260961    47.8432435655     0.0217628153     0.0001217738 24541.7203008842
   -0.7244897959     0.8102939134    46.4264214035    47.6694459421     0.0216948709     0.0001214834 24543.3019374208
   -0.7224489796     0.8073377312    46.2570446372    47.4962018681     0.0216273736     0.0001211972 24544.8738486814
   -0.7204081633     0.8043906520    46.0881894401    47.3235067823     0.0215603549     0.0001209152 24546.4361563261
   -0.7183673469     0.8014525670    45.9198495701    47.1513520750     0.0214937735     0.0001206374 24547.9889768841
   -0.7163265306     0.7985233692    45.7520188977    46.9797299063     0.0214275994     0.0001203636 24549.5324218984
   -0.7142857143     0.7956029535    45.5846914028    46.8086335186     0.0213618198     0.0001200936 24551.0665981347
   -0.7122448980     0.7926912167    45.4178611722    46.6380562826     0.0212964222     0.0001198275 24552.5916156408
   -0.7102040816     0.7897880574    45.2515223968    46.4679916940     0.0212313945     0.0001195651 24554.1075832670
   -0.7081632653     0.7868933760    45.0856693690    46.2984333693     0.0211667249     0.0001193064 24555.6146043779
   -0.7061224490     0.7840070746    44.9202964804    46.1293750438     0.0211024018     0.0001190513 24557.1127805015
   -0.7040816327     0.7811290570    44.7553982192    45.9608105676     0.0210384143     0.0001187997 24558.6022113741
   -0.7020408163     0.7782592286    44.5909691678    45.7927339038     0.0209747515     0.0001185516 24560.0829949841
   -0.7000000000     0.7753974966    44.4270040008    45.6251391245     0.0209114028     0.0001183069 24561.5552257300
   -0.6979591837     0.7725437695    44.2634974825    45.4580204086     0.0208483581     0.0001180654 24563.0189942316
