shape model output for Neptune's 1-bar isobaric surface. models are described in Mankovich et al. 2026, PSJ.
the models summarized in this file assume the symmetric H-band 2014 wind profile from Tollefson et al. (2018, Icarus 311) Table 1.
the distribution of models in this file comes from Markov chain Monte Carlo fits to the Voyager 2 radio occultation reported in Lindal (1992, AJ 103).
these solutions vary the polar radius to fit the Voyager 2 radio occultation to a Gaussian with standard deviation 5 km.
the wind fit polynomial coefficients are also allowed to vary within their Gaussian uncertainties following T18 Table 1.
this model has wind polynomial cofficients a, b, c:    -2.583352e+02    1.699153e-01    5.400965e-06
mu=sin(phi), phi [radians], and lat_deg [degrees] refer to planetocentric latitude; lat_pg_deg gives planetographic latitude in degrees.
              mu          phi_rad          lat_deg       lat_pg_deg          psi_rad    omega_rad_s-1             r_km 
   -1.0000000000     1.5707963268    90.0000000000    90.0000000000     0.0000000000     0.0003451589 26510.3271033706
   -0.9998144712     1.5515331758    88.8963027451    89.2669120309     0.0064683523     0.0003446572 26511.9811346015
   -0.9996289425     1.5435536961    88.4391122386    88.9617359710     0.0091215049     0.0003441426 26513.6306571705
   -0.9994434137     1.5374305386    88.0882811581    88.7265371520     0.0111396686     0.0003436298 26515.2756785681
   -0.9992578850     1.5322682374    87.7925030866    88.5273985048     0.0128263447     0.0003431184 26516.9162106891
   -0.9990723562     1.5277199472    87.5319052508    88.3511984158     0.0142993633     0.0003426069 26518.5522620512
   -0.9988868275     1.5236077873    87.2962958471    88.1912370108     0.0156196699     0.0003420987 26520.1838403596
   -0.9987012987     1.5198260904    87.0796205724    88.0434950345     0.0168227829     0.0003415865 26521.8109572585
   -0.9985157699     1.5163060092    86.8779347757    87.9054107500     0.0179328387     0.0003410763 26523.4336184774
   -0.9983302412     1.5129997231    86.6884985354    87.7751835937     0.0189662322     0.0003405672 26525.0518321990
   -0.9981447124     1.5098724146    86.5093169626    87.6515058794     0.0199349573     0.0003400589 26526.6656081500
   -0.9979591837     1.5068978001    86.3388841007    87.5333932642     0.0208481178     0.0003395515 26528.2749564808
   -0.9959183673     1.4804147767    84.8215186329    86.4581845333     0.0285652087     0.0003340078 26545.6882480164
   -0.9938775510     1.4600831244    83.6566007642    85.5982591246     0.0338883313     0.0003285368 26562.5789478329
   -0.9918367347     1.4429339318    82.6740244067    84.8453444725     0.0378966843     0.0003231383 26578.9588156549
   -0.9897959184     1.4278174270    81.8079124837    84.1585049469     0.0410255779     0.0003178117 26594.8397715830
   -0.9877551020     1.4141440401    81.0244851196    83.5173026151     0.0435078729     0.0003125584 26610.2336826625
   -0.9857142857     1.4015635991    80.3036789465    82.9098553246     0.0454863587     0.0003073747 26625.1521621216
   -0.9836734694     1.3898479862    79.6324237728    82.3286699564     0.0470583733     0.0003022601 26639.6069454067
   -0.9816326531     1.3788387766    79.0016425268    81.7687636219     0.0482953739     0.0002972179 26653.6096562881
   -0.9795918367     1.3684206412    78.4047273409    81.2264816097     0.0492489027     0.0002922422 26667.1717722124
   -0.9775510204     1.3585065303    77.8366906282    80.6992952821     0.0499618764     0.0002873364 26680.3047277441
   -0.9755102041     1.3490288258    77.2936581616    80.1852273990     0.0504674037     0.0002824988 26693.0197279901
   -0.9734693878     1.3399337634    76.7725494708    79.6827750727     0.0507930187     0.0002777286 26705.3279736320
   -0.9714285714     1.3311777582    76.2708673246    79.1907731489     0.0509619705     0.0002730257 26717.2404404427
   -0.9693877551     1.3227248956    75.7865539757    78.7082920322     0.0509939490     0.0002683898 26728.7680240431
   -0.9673469388     1.3145451659    75.3178899826    78.2345162341     0.0509047311     0.0002638175 26739.9213410772
   -0.9653061224     1.3066131882    74.8634211408    77.7494512277     0.0503707273     0.0002584122 26750.6958386447
   -0.9632653061     1.2989072697    74.4219045316    77.2352103630     0.0491014496     0.0002513893 26760.9574132054
   -0.9612244898     1.2914086960    73.9922679079    76.7388929175     0.0479376497     0.0002449454 26770.7020292128
   -0.9591836735     1.2841011890    73.5735785965    76.2592286775     0.0468734365     0.0002390268 26779.9835010250
   -0.9571428571     1.2769704845    73.1650193268    75.7944525386     0.0458922670     0.0002335581 26788.8475938869
   -0.9551020408     1.2700040004    72.7658691871    75.3432580431     0.0449839216     0.0002284855 26797.3337580835
   -0.9530612245     1.2631905710    72.3754884407    74.9045722199     0.0441408390     0.0002237668 26805.4760553104
   -0.9510204082     1.2565202341    71.9933062850    74.4774783026     0.0433569809     0.0002193669 26813.3040981318
   -0.9489795918     1.2499840563    71.6188108859    74.0611269514     0.0426264567     0.0002152536 26820.8439910895
   -0.9469387755     1.2435739909    71.2515411916    73.6546819287     0.0419427183     0.0002113957 26828.1186474248
   -0.9448979592     1.2372827589    70.8910801509    73.2574717916     0.0413013255     0.0002077689 26835.1482902502
   -0.9428571429     1.2311037506    70.5370490537    72.8688919827     0.0406983367     0.0002043523 26841.9510058433
   -0.9408163265     1.2250309424    70.1891027733    72.4883965495     0.0401302469     0.0002011269 26848.5429606142
   -0.9387755102     1.2190588266    69.8469257429    72.1155172679     0.0395943915     0.0001980776 26854.9385565309
   -0.9367346939     1.2131823517    69.5102285299    71.7498348758     0.0390885047     0.0001951910 26861.1508683715
   -0.9346938776     1.2073968710    69.1787449051    71.3908936941     0.0386092799     0.0001924517 26867.1916330375
   -0.9326530612     1.2016980990    68.8522293213    71.0383178780     0.0381544431     0.0001898479 26873.0715123220
   -0.9306122449     1.1960820730    68.5304547326    70.6917637701     0.0377219589     0.0001873690 26878.8002920286
   -0.9285714286     1.1905451201    68.2132107017    70.3509163115     0.0373100013     0.0001850055 26884.3866477975
   -0.9265306122     1.1850838286    67.9003017483    70.0156004589     0.0369189272     0.0001827540 26889.8388665650
   -0.9244897959     1.1796950225    67.5915459031    69.6854537442     0.0365455861     0.0001806024 26895.1643098427
   -0.9224489796     1.1743757395    67.2867734365    69.3602091105     0.0361882793     0.0001785427 26900.3697513003
   -0.9204081633     1.1691232113    66.9858257369    69.0397032333     0.0358469247     0.0001765715 26905.4614635921
   -0.9183673469     1.1639348463    66.6885543185    68.7237422082     0.0355207296     0.0001746839 26910.4451931382
   -0.9163265306     1.1588082142    66.3948199388    68.4120422323     0.0352071708     0.0001728705 26915.3263247378
   -0.9142857143     1.1537410325    66.1044918138    68.1045199394     0.0349070759     0.0001711312 26920.1098737002
   -0.9122448980     1.1487311539    65.8174469161    67.8009579038     0.0346187975     0.0001694593 26924.8004406299
   -0.9102040816     1.1437765557    65.5335693460    67.5011671448     0.0343410599     0.0001678494 26929.4022749559
   -0.9081632653     1.1388753294    65.2527497676    67.2050992466     0.0340749266     0.0001663025 26933.9193685087
   -0.9061224490     1.1340256726    64.9748848997    66.9124799435     0.0338174131     0.0001648089 26938.3554503307
   -0.9040816327     1.1292258803    64.6998770572    66.6233279818     0.0335705516     0.0001633724 26942.7140032164
   -0.9020408163     1.1244743380    64.4276337361    66.3373748376     0.0333312701     0.0001619834 26946.9982648573
   -0.9000000000     1.1197695150    64.1580672368    66.0546323506     0.0331013057     0.0001606452 26951.2112918144
   -0.8979591837     1.1151099586    63.8910943224    65.7748711662     0.0328781083     0.0001593496 26955.3559508572
   -0.8959183673     1.1104942885    63.6266359071    65.4981093346     0.0326633732     0.0001581000 26959.4349088087
   -0.8938775510     1.1059211919    63.3646167727    65.2241242258     0.0324545275     0.0001568885 26963.4506865499
   -0.8918367347     1.1013894190    63.1049653087    64.9529498002     0.0322534139     0.0001557189 26967.4057339790
   -0.8897959184     1.0968977787    62.8476132749    64.6843881561     0.0320577693     0.0001545842 26971.3022528779
   -0.8877551020     1.0924451350    62.5924955840    64.4184260477     0.0318684985     0.0001534859 26975.1423303344
   -0.8857142857     1.0880304035    62.3395501007    64.1549552727     0.0316847975     0.0001524211 26978.9280436930
   -0.8836734694     1.0836525480    62.0887174586    63.8938813026     0.0315060526     0.0001513873 26982.6612744645
   -0.8816326531     1.0793105778    61.8399408902    63.6351996390     0.0313331761     0.0001503862 26986.3437492024
   -0.8795918367     1.0750035447    61.5931660703    63.3787637604     0.0311645588     0.0001494128 26989.9772064688
   -0.8775510204     1.0707305406    61.3483409720    63.1245536146     0.0310007588     0.0001484679 26993.5633009578
   -0.8755102041     1.0664906953    61.1054157324    62.8725084421     0.0308415860     0.0001475505 26997.1035278819
   -0.8734693878     1.0622831742    60.8643425293    62.6225299799     0.0306861599     0.0001466576 27000.5992969250
   -0.8714285714     1.0581071761    60.6250754655    62.3746060865     0.0305350697     0.0001457901 27004.0520522155
   -0.8693877551     1.0539619319    60.3875704629    62.1286690718     0.0303879033     0.0001449466 27007.4631172305
   -0.8673469388     1.0498467020    60.1517851626    61.8846408935     0.0302440380     0.0001441247 27010.8336809016
   -0.8653061224     1.0457607758    59.9176788330    61.6424987167     0.0301037860     0.0001433250 27014.1650035116
   -0.8632653061     1.0417034691    59.6852122830    61.4022041391     0.0299671611     0.0001425469 27017.4582134691
   -0.8612244898     1.0376741234    59.4543477825    61.1636784953     0.0298334489     0.0001417882 27020.7143543904
   -0.8591836735     1.0336721045    59.2250489867    60.9268798770     0.0297025523     0.0001410482 27023.9345210788
   -0.8571428571     1.0296968008    58.9972808661    60.6918100208     0.0295751130     0.0001403282 27027.1196788433
   -0.8551020408     1.0257476230    58.7710096411    60.4583896100     0.0294503362     0.0001396258 27030.2707823749
   -0.8530612245     1.0218240020    58.5462027200    60.2265760790     0.0293280478     0.0001389401 27033.3887590974
   -0.8510204082     1.0179253889    58.3228286418    59.9963332152     0.0292081649     0.0001382706 27036.4744433145
   -0.8489795918     1.0140512533    58.1008570218    59.7676612511     0.0290912218     0.0001376184 27039.5287001436
   -0.8469387755     1.0102010827    57.8802585008    59.5404911599     0.0289765263     0.0001369814 27042.5523254930
   -0.8448979592     1.0063743820    57.6610046973    59.3147877883     0.0288639601     0.0001363590 27045.5460704576
   -0.8428571429     1.0025706719    57.4430681625    59.0905196433     0.0287534526     0.0001357506 27048.5106957794
   -0.8408163265     0.9987894889    57.2264223382    58.8676673977     0.0286451301     0.0001351565 27051.4469089210
   -0.8387755102     0.9950303845    57.0110415164    58.6462075804     0.0285390316     0.0001345764 27054.3553773299
   -0.8367346939     0.9912929239    56.7969008020    58.4260924316     0.0284347581     0.0001340090 27057.2367450387
   -0.8346938776     0.9875766864    56.5839760772    58.2072943735     0.0283322491     0.0001334541 27060.0916270932
   -0.8326530612     0.9838812640    56.3722439680    57.9897866830     0.0282314462     0.0001329111 27062.9206383152
   -0.8306122449     0.9802062611    56.1616818123    57.7735434570     0.0281322928     0.0001323797 27065.7243916274
   -0.8285714286     0.9765512941    55.9522676300    57.5585596847     0.0280350851     0.0001318606 27068.5034331341
   -0.8265306122     0.9729159908    55.7439800947    57.3447905723     0.0279394135     0.0001313524 27071.2582862967
   -0.8244897959     0.9692999900    55.5367985066    57.1322113110     0.0278452064     0.0001308548 27073.9894843525
   -0.8224489796     0.9657029407    55.3307027670    56.9207990194     0.0277524150     0.0001303674 27076.6975080135
   -0.8204081633     0.9621245024    55.1256733545    56.7105314853     0.0276609926     0.0001298901 27079.3828623137
   -0.8183673469     0.9585643440    54.9216913014    56.5013871341     0.0275708935     0.0001294224 27082.0460332782
   -0.8163265306     0.9550221437    54.7187381727    56.2933458118     0.0274820877     0.0001289641 27084.6874587031
   -0.8142857143     0.9514975886    54.5167960447    56.0863993699     0.0273947460     0.0001285156 27087.3075666250
   -0.8122448980     0.9479903746    54.3158474857    55.8805138815     0.0273085803     0.0001280760 27089.9067749145
   -0.8102040816     0.9445002057    54.1158755372    55.6756701445     0.0272235516     0.0001276450 27092.4854813227
   -0.8081632653     0.9410267938    53.9168636960    55.4718494826     0.0271396218     0.0001272224 27095.0440774481
   -0.8061224490     0.9375698586    53.7187958976    55.2690337288     0.0270567543     0.0001268079 27097.5829746425
   -0.8040816327     0.9341291270    53.5216564995    55.0672051986     0.0269749135     0.0001264013 27100.1025308626
   -0.8020408163     0.9307043332    53.3254302661    54.8663466787     0.0268940649     0.0001260024 27102.6031053463
   -0.8000000000     0.9272952180    53.1301023542    54.6664414067     0.0268141749     0.0001256111 27105.0850250588
   -0.7979591837     0.9239015290    52.9356582985    54.4674730612     0.0267352111     0.0001252271 27107.5486344244
   -0.7959183673     0.9205230201    52.7420839987    54.2694257406     0.0266571422     0.0001248502 27109.9942496605
   -0.7938775510     0.9171594514    52.5493657065    54.0722895392     0.0265800351     0.0001244805 27112.4221816219
   -0.7918367347     0.9138105888    52.3574900132    53.8760442303     0.0265037710     0.0001241175 27114.8327485561
   -0.7897959184     0.9104762040    52.1664438387    53.6806740149     0.0264283022     0.0001237612 27117.2262386149
   -0.7877551020     0.9071560743    51.9762144194    53.4861645728     0.0263536017     0.0001234112 27119.6029289737
   -0.7857142857     0.9038499823    51.7867892983    53.2925019399     0.0262796432     0.0001230675 27121.9631079514
   -0.7836734694     0.9005577156    51.5981563144    53.0996724928     0.0262064011     0.0001227299 27124.3070454884
   -0.7816326531     0.8972790671    51.4103035930    52.9076629377     0.0261338507     0.0001223981 27126.6349954317
   -0.7795918367     0.8940138344    51.2232195364    52.7164603028     0.0260619679     0.0001220722 27128.9472186225
   -0.7775510204     0.8907618196    51.0368928148    52.5260519255     0.0259907296     0.0001217519 27131.2439681637
   -0.7755102041     0.8875228296    50.8513123577    52.3364254406     0.0259201131     0.0001214371 27133.5254676001
   -0.7734693878     0.8842966755    50.6664673458    52.1475687752     0.0258500965     0.0001211277 27135.7919532923
   -0.7714285714     0.8810831728    50.4823472028    51.9594701375     0.0257806587     0.0001208235 27138.0436547519
   -0.7693877551     0.8778821410    50.2989415880    51.7721180077     0.0257117790     0.0001205245 27140.2807944300
   -0.7673469388     0.8746934035    50.1162403889    51.5855011301     0.0256434375     0.0001202304 27142.5035905389
   -0.7653061224     0.8715167878    49.9342337142    51.3996085041     0.0255756149     0.0001199413 27144.7122507666
   -0.7632653061     0.8683521249    49.7529118872    51.2144293763     0.0255082923     0.0001196569 27146.9069729829
   -0.7612244898     0.8651992496    49.5722654391    51.0299532335     0.0254414515     0.0001193771 27149.0879462163
   -0.7591836735     0.8620580001    49.3922851027    50.8461697962     0.0253750748     0.0001191019 27151.2553630311
   -0.7571428571     0.8589282182    49.2129618067    50.6630690125     0.0253091452     0.0001188312 27153.4094203488
   -0.7551020408     0.8558097488    49.0342866700    50.4806410482     0.0252436461     0.0001185648 27155.5503002652
   -0.7530612245     0.8527024401    48.8562509955    50.2988762812     0.0251785611     0.0001183026 27157.6781692904
   -0.7510204082     0.8496061434    48.6788462656    50.1177652963     0.0251138748     0.0001180447 27159.7931943146
   -0.7489795918     0.8465207132    48.5020641364    49.9372988814     0.0250495718     0.0001177907 27161.8955556495
   -0.7469387755     0.8434460067    48.3258964330    49.7574680176     0.0249856376     0.0001175407 27163.9854192845
   -0.7448979592     0.8403818842    48.1503351447    49.5782638744     0.0249220578     0.0001172947 27166.0629354789
   -0.7428571429     0.8373282086    47.9753724206    49.3996778059     0.0248588185     0.0001170524 27168.1282577659
   -0.7408163265     0.8342848456    47.8010005647    49.2217013458     0.0247959063     0.0001168138 27170.1815454140
   -0.7387755102     0.8312516635    47.6272120320    49.0443262007     0.0247333081     0.0001165789 27172.2229460681
   -0.7367346939     0.8282285332    47.4539994242    48.8675442457     0.0246710113     0.0001163475 27174.2525984279
   -0.7346938776     0.8252153280    47.2813554856    48.6913475208     0.0246090034     0.0001161196 27176.2706472600
   -0.7326530612     0.8222119238    47.1092730996    48.5157282249     0.0245472727     0.0001158951 27178.2772258665
   -0.7306122449     0.8192181987    46.9377452847    48.3406787119     0.0244858075     0.0001156740 27180.2724621510
   -0.7285714286     0.8162340331    46.7667651908    48.1661914881     0.0244245965     0.0001154561 27182.2564898935
   -0.7265306122     0.8132593097    46.5963260961    47.9922592072     0.0243636289     0.0001152414 27184.2294477210
   -0.7244897959     0.8102939134    46.4264214035    47.8188746650     0.0243028941     0.0001150299 27186.1914588566
   -0.7224489796     0.8073377312    46.2570446372    47.6460307966     0.0242423817     0.0001148214 27188.1426451526
   -0.7204081633     0.8043906520    46.0881894401    47.4737231114     0.0241821245     0.0001146160 27190.0831266483
   -0.7183673469     0.8014525670    45.9198495701    47.3019433179     0.0241220865     0.0001144137 27192.0130160940
   -0.7163265306     0.7985233692    45.7520188977    47.1306838474     0.0240622427     0.0001142142 27193.9324208241
   -0.7142857143     0.7956029535    45.5846914028    46.9599381510     0.0240025838     0.0001140176 27195.8414543681
   -0.7122448980     0.7926912167    45.4178611722    46.7896998019     0.0239431009     0.0001138237 27197.7402227220
   -0.7102040816     0.7897880574    45.2515223968    46.6199624923     0.0238837853     0.0001136325 27199.6288308406
   -0.7081632653     0.7868933760    45.0856693690    46.4507200312     0.0238246285     0.0001134441 27201.5073847294
   -0.7061224490     0.7840070746    44.9202964804    46.2819663411     0.0237656224     0.0001132582 27203.3759912603
   -0.7040816327     0.7811290570    44.7553982192    46.1136954546     0.0237067590     0.0001130749 27205.2347516411
   -0.7020408163     0.7782592286    44.5909691678    45.9459015111     0.0236480305     0.0001128941 27207.0837586149
   -0.7000000000     0.7753974966    44.4270040008    45.7785787553     0.0235894296     0.0001127158 27208.9231043532
   -0.6979591837     0.7725437695    44.2634974825    45.6117215345     0.0235309488     0.0001125398 27210.7528810404
