shape model output for Uranus's 1-bar isobaric surface. models are described in Mankovich et al. 2026, PSJ.
this model assumes the symmetric wind profile from Sromovsky et al. (2015, Icarus 258) Equation (2).
these solutions vary the polar radius to fit the pair of Voyager 2 occultations reported in Lindal et al. 1987 to a Gaussian standard deviation of 50 m.
the wind fit spectral coefficients are also allowed to vary within their Gaussian uncertainties following S15 Table 5 (Fit 1).
this model has l=0,2,..., 18 wind spectral cofficients:  -1.237302 -3.602445 -0.103146  0.842966  0.315463 -0.178986 -0.237226  0.038600  0.122503  0.025985
mu=sin(phi), phi [radians], and lat_deg [degrees] refer to planetocentric latitude; lat_pg_deg gives planetographic latitude in degrees.
              mu          phi_rad          lat_deg       lat_pg_deg          psi_rad    omega_rad_s-1             r_km 
   -1.0000000000     1.5707963268    90.0000000000    90.0000000000     0.0000000000     0.0001206956 24968.5018340443
   -0.9998144712     1.5515331758    88.8963027451    88.9518413650     0.0009693318     0.0001207071 24968.7349504291
   -0.9996289425     1.5435536961    88.4391122386    88.5176515367     0.0013707693     0.0001207184 24968.9680665304
   -0.9994434137     1.5374305386    88.0882811581    88.1844664276     0.0016787496     0.0001207295 24969.2011862774
   -0.9992578850     1.5322682374    87.7925030866    87.9035618720     0.0019383415     0.0001207405 24969.4343081941
   -0.9990723562     1.5277199472    87.5319052508    87.6560653785     0.0021670030     0.0001207513 24969.6674308404
   -0.9988868275     1.5236077873    87.2962958471    87.4322980349     0.0023736860     0.0001207620 24969.9005530510
   -0.9987012987     1.5198260904    87.0796205724    87.2265105072     0.0025637130     0.0001207725 24970.1336738845
   -0.9985157699     1.5163060092    86.8779347757    87.0349565203     0.0027405464     0.0001207829 24970.3667925661
   -0.9983302412     1.5129997231    86.6884985354    86.8550340957     0.0029065938     0.0001207932 24970.5999084462
   -0.9981447124     1.5098724146    86.5093169626    86.6848487710     0.0030636080     0.0001208033 24970.8330209706
   -0.9979591837     1.5068978001    86.3388841007    86.5229703952     0.0032129119     0.0001208133 24971.0661296597
   -0.9959183673     1.4804147767    84.8215186329    85.0816232608     0.0045396822     0.0001209144 24973.6299760803
   -0.9938775510     1.4600831244    83.6566007642    83.9748143909     0.0055538755     0.0001210005 24976.1928521714
   -0.9918367347     1.4429339318    82.6740244067    83.0409982872     0.0064049025     0.0001210732 24978.7542930184
   -0.9897959184     1.4278174270    81.8079124837    82.2176134707     0.0071506312     0.0001211339 24981.3138440758
   -0.9877551020     1.4141440401    81.0244851196    81.4725818920     0.0078207640     0.0001211839 24983.8711088722
   -0.9857142857     1.4015635991    80.3036789465    80.7868525855     0.0084329709     0.0001212244 24986.4257541831
   -0.9836734694     1.3898479862    79.6324237728    80.1480170178     0.0089987997     0.0001212563 24988.9774739444
   -0.9816326531     1.3788387766    79.0016425268    79.5474603345     0.0095263179     0.0001212810 24991.5259861160
   -0.9795918367     1.3684206412    78.4047273409    78.9789117543     0.0100214085     0.0001212991 24994.0710537587
   -0.9775510204     1.3585065303    77.8366906282    78.4376412807     0.0104885675     0.0001213116 24996.6124747118
   -0.9755102041     1.3490288258    77.2936581616    77.9199755543     0.0109313007     0.0001213193 24999.1500734070
   -0.9734693878     1.3399337634    76.7725494708    77.4229953857     0.0113524228     0.0001213228 25001.6836951450
   -0.9714285714     1.3311777582    76.2708673246    76.9443356646     0.0117542399     0.0001213229 25004.2132020700
   -0.9693877551     1.3227248956    75.7865539757    76.4820485438     0.0121386701     0.0001213201 25006.7384851238
   -0.9673469388     1.3145451659    75.3178899826    76.0345065111     0.0125073179     0.0001213149 25009.2594500397
   -0.9653061224     1.3066131882    74.8634211408    75.6003356952     0.0128615853     0.0001213078 25011.7760165994
   -0.9632653061     1.2989072697    74.4219045316    75.1783605026     0.0132026473     0.0001212992 25014.2881242698
   -0.9612244898     1.2914086960    73.9922679079    74.7675689952     0.0135315567     0.0001212895 25016.7957276605
   -0.9591836735     1.2841011890    73.5735785965    74.3670799683     0.0138492116     0.0001212790 25019.2987931446
   -0.9571428571     1.2769704845    73.1650193268    73.9761225873     0.0141564225     0.0001212680 25021.7972963095
   -0.9551020408     1.2700040004    72.7658691871    73.5940168011     0.0144539026     0.0001212568 25024.2912200089
   -0.9530612245     1.2631905710    72.3754884407    73.2201592546     0.0147422868     0.0001212455 25026.7805528585
   -0.9510204082     1.2565202341    71.9933062850    72.8540117749     0.0150221447     0.0001212343 25029.2652880655
   -0.9489795918     1.2499840563    71.6188108859    72.4950919190     0.0152939892     0.0001212235 25031.7454254750
   -0.9469387755     1.2435739909    71.2515411916    72.1429650760     0.0155582818     0.0001212130 25034.2209744619
   -0.9448979592     1.2372827589    70.8910801509    71.7972380751     0.0158154393     0.0001212030 25036.6919465616
   -0.9428571429     1.2311037506    70.5370490537    71.4575538288     0.0160658391     0.0001211936 25039.1583540815
   -0.9408163265     1.2250309424    70.1891027733    71.1235868182     0.0163098234     0.0001211847 25041.6202098697
   -0.9387755102     1.2190588266    69.8469257429    70.7950393472     0.0165477041     0.0001211765 25044.0775271308
   -0.9367346939     1.2131823517    69.5102285299    70.4716382760     0.0167797655     0.0001211690 25046.5303192792
   -0.9346938776     1.2073968710    69.1787449051    70.1531319878     0.0170062628     0.0001211620 25048.9785998216
   -0.9326530612     1.2016980990    68.8522293213    69.8392883231     0.0172274295     0.0001211557 25051.4223822637
   -0.9306122449     1.1960820730    68.5304547326    69.5298924370     0.0174434786     0.0001211499 25053.8616800352
   -0.9285714286     1.1905451201    68.2132107017    69.2247450281     0.0176546045     0.0001211445 25056.2965064302
   -0.9265306122     1.1850838286    67.9003017483    68.9236610951     0.0178609900     0.0001211397 25058.7268712883
   -0.9244897959     1.1796950225    67.5915459031    68.6264676026     0.0180627912     0.0001211352 25061.1527762579
   -0.9224489796     1.1743757395    67.2867734365    68.3330032382     0.0182601548     0.0001211309 25063.5742312461
   -0.9204081633     1.1691232113    66.9858257369    68.0431172219     0.0184532176     0.0001211269 25065.9912414316
   -0.9183673469     1.1639348463    66.6885543185    67.7566679837     0.0186421002     0.0001211229 25068.4038066846
   -0.9163265306     1.1588082142    66.3948199388    67.4735227007     0.0188269148     0.0001211190 25070.8119221659
   -0.9142857143     1.1537410325    66.1044918138    67.1935563050     0.0190077611     0.0001211149 25073.2155788522
   -0.9122448980     1.1487311539    65.8174469161    66.9166510482     0.0191847313     0.0001211107 25075.6147639971
   -0.9102040816     1.1437765557    65.5335693460    66.6426961440     0.0193579144     0.0001211061 25078.0094615366
   -0.9081632653     1.1388753294    65.2527497676    66.3715858266     0.0195273730     0.0001211010 25080.3996524482
   -0.9061224490     1.1340256726    64.9748848997    66.1032220647     0.0196931986     0.0001210955 25082.7853150671
   -0.9040816327     1.1292258803    64.6998770572    65.8375090099     0.0198554233     0.0001210892 25085.1664253673
   -0.9020408163     1.1244743380    64.4276337361    65.5743595111     0.0200141404     0.0001210822 25087.5429572112
   -0.9000000000     1.1197695150    64.1580672368    65.3136866284     0.0201693633     0.0001210742 25089.9148825714
   -0.8979591837     1.1151099586    63.8910943224    65.0554124010     0.0203211840     0.0001210654 25092.2821680007
   -0.8959183673     1.1104942885    63.6266359071    64.7994571351     0.0204695920     0.0001210553 25094.6447718054
   -0.8938775510     1.1059211919    63.3646167727    64.5457516048     0.0206146917     0.0001210441 25097.0026537886
   -0.8918367347     1.1013894190    63.1049653087    64.2942218746     0.0207564427     0.0001210315 25099.3557700210
   -0.8897959184     1.0968977787    62.8476132749    64.0448058751     0.0208949527     0.0001210175 25101.7040730329
   -0.8877551020     1.0924451350    62.5924955840    63.7974372091     0.0210301987     0.0001210019 25104.0475121501
   -0.8857142857     1.0880304035    62.3395501007    63.5520567741     0.0211622337     0.0001209848 25106.3860337978
   -0.8836734694     1.0836525480    62.0887174586    63.3086079490     0.0212911056     0.0001209660 25108.7195817751
   -0.8816326531     1.0793105778    61.8399408902    63.0670310208     0.0214167630     0.0001209453 25111.0480975030
   -0.8795918367     1.0750035447    61.5931660703    62.8272783350     0.0215393224     0.0001209228 25113.3715202492
   -0.8775510204     1.0707305406    61.3483409720    62.5892958268     0.0216587481     0.0001208983 25115.6897873325
   -0.8755102041     1.0664906953    61.1054157324    62.3530345647     0.0217750564     0.0001208717 25118.0028343069
   -0.8734693878     1.0622831742    60.8643425293    62.1184515240     0.0218883311     0.0001208431 25120.3105951308
   -0.8714285714     1.0581071761    60.6250754655    61.8854975288     0.0219985150     0.0001208122 25122.6130023186
   -0.8693877551     1.0539619319    60.3875704629    61.6541308349     0.0221056487     0.0001207791 25124.9099870810
   -0.8673469388     1.0498467020    60.1517851626    61.4243132929     0.0222098057     0.0001207438 25127.2014799525
   -0.8653061224     1.0457607758    59.9176788330    61.1960020013     0.0223109482     0.0001207062 25129.4874078957
   -0.8632653061     1.0417034691    59.6852122830    60.9691573723     0.0224090692     0.0001206660 25131.7676956556
   -0.8612244898     1.0376741234    59.4543477825    60.7437473713     0.0225042682     0.0001206235 25134.0422678677
   -0.8591836735     1.0336721045    59.2250489867    60.5197367761     0.0225965647     0.0001205787 25136.3110490968
   -0.8571428571     1.0296968008    58.9972808661    60.2970843979     0.0226858513     0.0001205311 25138.5739638709
   -0.8551020408     1.0257476230    58.7710096411    60.0757638808     0.0227722574     0.0001204810 25140.8309367127
   -0.8530612245     1.0218240020    58.5462027200    59.8557446377     0.0228558182     0.0001204286 25143.0818921672
   -0.8510204082     1.0179253889    58.3228286418    59.6369963891     0.0229365541     0.0001203736 25145.3267548259
   -0.8489795918     1.0140512533    58.1008570218    59.4194825425     0.0230143569     0.0001203158 25147.5654493494
   -0.8469387755     1.0102010827    57.8802585008    59.2031818243     0.0230893677     0.0001202555 25149.7979004868
   -0.8448979592     1.0063743820    57.6610046973    58.9880676641     0.0231616182     0.0001201927 25152.0240330935
   -0.8428571429     1.0025706719    57.4430681625    58.7741139308     0.0232311312     0.0001201273 25154.2437721464
   -0.8408163265     0.9987894889    57.2264223382    58.5612926486     0.0232978820     0.0001200594 25156.4570427576
   -0.8387755102     0.9950303845    57.0110415164    58.3495776998     0.0233618636     0.0001199887 25158.6637701868
   -0.8367346939     0.9912929239    56.7969008020    58.1389502897     0.0234231823     0.0001199155 25160.8638798519
   -0.8346938776     0.9875766864    56.5839760772    57.9293877978     0.0234818643     0.0001198398 25163.0572978448
   -0.8326530612     0.9838812640    56.3722439680    57.7208683902     0.0235379365     0.0001197617 25165.2439561317
   -0.8306122449     0.9802062611    56.1616818123    57.5133709879     0.0235914266     0.0001196811 25167.4237854930
   -0.8285714286     0.9765512941    55.9522676300    57.3068692489     0.0236422583     0.0001195978 25169.5967174458
   -0.8265306122     0.9729159908    55.7439800947    57.1013493409     0.0236905625     0.0001195122 25171.7626854801
   -0.8244897959     0.9692999900    55.5367985066    56.8967926620     0.0237363758     0.0001194241 25173.9216249670
   -0.8224489796     0.9657029407    55.3307027670    56.6931808941     0.0237797293     0.0001193337 25176.0734730715
   -0.8204081633     0.9621245024    55.1256733545    56.4904963390     0.0238206548     0.0001192411 25178.2181686707
   -0.8183673469     0.9585643440    54.9216913014    56.2887218951     0.0238591848     0.0001191462 25180.3556522754
   -0.8163265306     0.9550221437    54.7187381727    56.0878407621     0.0238953480     0.0001190491 25182.4858659567
   -0.8142857143     0.9514975886    54.5167960447    55.8878327924     0.0239291054     0.0001189496 25184.6087532763
   -0.8122448980     0.9479903746    54.3158474857    55.6886872523     0.0239605740     0.0001188480 25186.7242592201
   -0.8102040816     0.9445002057    54.1158755372    55.4903892174     0.0239897893     0.0001187443 25188.8323301355
   -0.8081632653     0.9410267938    53.9168636960    55.2929242531     0.0240167874     0.0001186386 25190.9329152224
   -0.8061224490     0.9375698586    53.7187958976    55.0962783965     0.0240416050     0.0001185310 25193.0259694916
   -0.8040816327     0.9341291270    53.5216564995    54.9004381375     0.0240642792     0.0001184215 25195.1114454327
   -0.8020408163     0.9307043332    53.3254302661    54.7053904012     0.0240848479     0.0001183101 25197.1892979402
   -0.8000000000     0.9272952180    53.1301023542    54.5111225317     0.0241033491     0.0001181970 25199.2594847260
   -0.7979591837     0.9239015290    52.9356582985    54.3176222753     0.0241198215     0.0001180821 25201.3219661950
   -0.7959183673     0.9205230201    52.7420839987    54.1248777649     0.0241343041     0.0001179656 25203.3767053262
   -0.7938775510     0.9171594514    52.5493657065    53.9328755138     0.0241468014     0.0001178474 25205.4236675598
   -0.7918367347     0.9138105888    52.3574900132    53.7416062301     0.0241573852     0.0001177276 25207.4628206902
   -0.7897959184     0.9104762040    52.1664438387    53.5510595102     0.0241661023     0.0001176064 25209.4941347639
   -0.7877551020     0.9071560743    51.9762144194    53.3612248800     0.0241729927     0.0001174838 25211.5175819830
   -0.7857142857     0.9038499823    51.7867892983    53.1720921795     0.0241780964     0.0001173599 25213.5331366129
   -0.7836734694     0.9005577156    51.5981563144    52.9836515497     0.0241814536     0.0001172347 25215.5407748945
   -0.7816326531     0.8972790671    51.4103035930    52.7958934205     0.0241831046     0.0001171083 25217.5404749682
   -0.7795918367     0.8940138344    51.2232195364    52.6088084986     0.0241830895     0.0001169808 25219.5322192238
   -0.7775510204     0.8907618196    51.0368928148    52.4223877561     0.0241814485     0.0001168523 25221.5159910178
   -0.7755102041     0.8875228296    50.8513123577    52.2366224187     0.0241782217     0.0001167228 25223.4917740722
   -0.7734693878     0.8842966755    50.6664673458    52.0515039556     0.0241734491     0.0001165923 25225.4595547170
   -0.7714285714     0.8810831728    50.4823472028    51.8670240688     0.0241671704     0.0001164611 25227.4193217844
   -0.7693877551     0.8778821410    50.2989415880    51.6831746831     0.0241594251     0.0001163290 25229.3710665085
   -0.7673469388     0.8746934035    50.1162403889    51.4999479366     0.0241502526     0.0001161962 25231.3147824291
   -0.7653061224     0.8715167878    49.9342337142    51.3173361711     0.0241396918     0.0001160628 25233.2504653006
   -0.7632653061     0.8683521249    49.7529118872    51.1353319233     0.0241277813     0.0001159288 25235.1781130038
   -0.7612244898     0.8651992496    49.5722654391    50.9539279162     0.0241145594     0.0001157943 25237.0977254629
   -0.7591836735     0.8620580001    49.3922851027    50.7731170506     0.0241000639     0.0001156594 25239.0093045654
   -0.7571428571     0.8589282182    49.2129618067    50.5928923973     0.0240843323     0.0001155241 25240.9128540858
   -0.7551020408     0.8558097488    49.0342866700    50.4132471894     0.0240674013     0.0001153884 25242.8083796127
   -0.7530612245     0.8527024401    48.8562509955    50.2341748148     0.0240493075     0.0001152526 25244.6958884791
   -0.7510204082     0.8496061434    48.6788462656    50.0556688094     0.0240300866     0.0001151165 25246.5753896952
   -0.7489795918     0.8465207132    48.5020641364    49.8777228502     0.0240097739     0.0001149803 25248.4468938852
   -0.7469387755     0.8434460067    48.3258964330    49.7003307490     0.0239884042     0.0001148440 25250.3104132256
   -0.7448979592     0.8403818842    48.1503351447    49.5234864459     0.0239660113     0.0001147078 25252.1659613870
   -0.7428571429     0.8373282086    47.9753724206    49.3471840039     0.0239426288     0.0001145715 25254.0135534778
   -0.7408163265     0.8342848456    47.8010005647    49.1714176027     0.0239182894     0.0001144354 25255.8532059908
   -0.7387755102     0.8312516635    47.6272120320    48.9961815339     0.0238930252     0.0001142995 25257.6849367515
   -0.7367346939     0.8282285332    47.4539994242    48.8214701956     0.0238668674     0.0001141637 25259.5087648690
   -0.7346938776     0.8252153280    47.2813554856    48.6472780876     0.0238398467     0.0001140283 25261.3247106886
   -0.7326530612     0.8222119238    47.1092730996    48.4735998068     0.0238119931     0.0001138931 25263.1327957467
   -0.7306122449     0.8192181987    46.9377452847    48.3004300431     0.0237833357     0.0001137583 25264.9330429565
   -0.7285714286     0.8162340331    46.7667651908    48.1277635746     0.0237539029     0.0001136240 25266.7254772331
   -0.7265306122     0.8132593097    46.5963260961    47.9555952647     0.0237237224     0.0001134900 25268.5101246549
   -0.7244897959     0.8102939134    46.4264214035    47.7839200573     0.0236928211     0.0001133566 25270.2870121752
   -0.7224489796     0.8073377312    46.2570446372    47.6127329739     0.0236612251     0.0001132238 25272.0561675899
   -0.7204081633     0.8043906520    46.0881894401    47.4420293379     0.0236289638     0.0001130915 25273.8176195070
   -0.7183673469     0.8014525670    45.9198495701    47.2718043013     0.0235960614     0.0001129599 25275.5713973165
   -0.7163265306     0.7985233692    45.7520188977    47.1020530389     0.0235625408     0.0001128290 25277.3175311625
   -0.7142857143     0.7956029535    45.5846914028    46.9327708547     0.0235284250     0.0001126987 25279.0560519156
   -0.7122448980     0.7926912167    45.4178611722    46.7639531145     0.0234937364     0.0001125693 25280.7869911468
   -0.7102040816     0.7897880574    45.2515223968    46.5955952437     0.0234584966     0.0001124406 25282.5103811027
   -0.7081632653     0.7868933760    45.0856693690    46.4276927248     0.0234227262     0.0001123127 25284.2262546808
   -0.7061224490     0.7840070746    44.9202964804    46.2602410960     0.0233864453     0.0001121856 25285.9346454067
   -0.7040816327     0.7811290570    44.7553982192    46.0932359481     0.0233496732     0.0001120594 25287.6355874118
   -0.7020408163     0.7782592286    44.5909691678    45.9266729239     0.0233124284     0.0001119341 25289.3291154115
   -0.7000000000     0.7753974966    44.4270040008    45.7605477156     0.0232747285     0.0001118098 25291.0152646853
   -0.6979591837     0.7725437695    44.2634974825    45.5948560637     0.0232365908     0.0001116863 25292.6940710564
   -0.6959183673     0.7696979575    44.1004444649    45.4295937929     0.0231980320     0.0001115639 25294.3655708730
