shape model output for Uranus's 1-bar isobaric surface. models are described in Mankovich et al. 2026, PSJ.
this model assumes the symmetric wind profile from Sromovsky et al. (2015, Icarus 258) Equation (2).
these solutions vary the polar radius to fit the pair of Voyager 2 occultations reported in Lindal et al. 1987 to a Gaussian standard deviation of 50 m.
the wind fit spectral coefficients are also allowed to vary within their Gaussian uncertainties following S15 Table 5 (Fit 1).
this model has l=0,2,..., 18 wind spectral cofficients:  -1.248466 -3.586377 -0.140505  0.835707  0.324301 -0.209395 -0.271380 -0.023496  0.134375  0.073959
mu=sin(phi), phi [radians], and lat_deg [degrees] refer to planetocentric latitude; lat_pg_deg gives planetographic latitude in degrees.
              mu          phi_rad          lat_deg       lat_pg_deg          psi_rad    omega_rad_s-1             r_km 
   -1.0000000000     1.5707963268    90.0000000000    90.0000000000     0.0000000000     0.0001211692 24968.3021922287
   -0.9998144712     1.5515331758    88.8963027451    88.9521831272     0.0009752967     0.0001211797 24968.5367425866
   -0.9996289425     1.5435536961    88.4391122386    88.5181337486     0.0013791855     0.0001211899 24968.7712897382
   -0.9994434137     1.5374305386    88.0882811581    88.1850555992     0.0016890326     0.0001212000 24969.0058376548
   -0.9992578850     1.5322682374    87.7925030866    87.9042404951     0.0019501857     0.0001212098 24969.2403844784
   -0.9990723562     1.5277199472    87.5319052508    87.6568221372     0.0021802110     0.0001212195 24969.4749284762
   -0.9988868275     1.5236077873    87.2962958471    87.4331248110     0.0023881159     0.0001212289 24969.7094682616
   -0.9987012987     1.5198260904    87.0796205724    87.2274010308     0.0025792556     0.0001212382 24969.9440027198
   -0.9985157699     1.5163060092    86.8779347757    87.0359057869     0.0027571143     0.0001212473 24970.1785309362
   -0.9983302412     1.5129997231    86.6884985354    86.8560379528     0.0029241145     0.0001212562 24970.4130521454
   -0.9981447124     1.5098724146    86.5093169626    86.6859036871     0.0030820198     0.0001212650 24970.6475656950
   -0.9979591837     1.5068978001    86.3388841007    86.5240733096     0.0032321614     0.0001212735 24970.8820710212
   -0.9959183673     1.4804147767    84.8215186329    85.0831206635     0.0045658168     0.0001213567 24973.4609690890
   -0.9938775510     1.4600831244    83.6566007642    83.9765562206     0.0055842762     0.0001214212 24976.0382332059
   -0.9918367347     1.4429339318    82.6740244067    83.0428886115     0.0064378949     0.0001214691 24978.6132738511
   -0.9897959184     1.4278174270    81.8079124837    82.2195789419     0.0071849351     0.0001215027 24981.1855443413
   -0.9877551020     1.4141440401    81.0244851196    81.4745625972     0.0078553339     0.0001215237 24983.7545869903
   -0.9857142857     1.4015635991    80.3036789465    80.7887979774     0.0084669244     0.0001215339 24986.3200188006
   -0.9836734694     1.3898479862    79.6324237728    80.1498842501     0.0090313891     0.0001215348 24988.8814843187
   -0.9816326531     1.3788387766    79.0016425268    79.5492134536     0.0095569156     0.0001215279 24991.4386894182
   -0.9795918367     1.3684206412    78.4047273409    78.9805204344     0.0100494853     0.0001215145 24993.9913993014
   -0.9775510204     1.3585065303    77.8366906282    78.4390808824     0.0105136933     0.0001214958 24996.5394205907
   -0.9755102041     1.3490288258    77.2936581616    77.9212263758     0.0109531316     0.0001214729 24999.0825900622
   -0.9734693878     1.3399337634    76.7725494708    77.4240423638     0.0113706960     0.0001214467 25001.6207707618
   -0.9714285714     1.3311777582    76.2708673246    76.9451680225     0.0117687673     0.0001214180 25004.1538714436
   -0.9693877551     1.3227248956    75.7865539757    76.4826594034     0.0121493317     0.0001213878 25006.6818128858
   -0.9673469388     1.3145451659    75.3178899826    76.0348928286     0.0125140604     0.0001213565 25009.2045462794
   -0.9653061224     1.3066131882    74.8634211408    75.6004974125     0.0128644078     0.0001213249 25011.7220498981
   -0.9632653061     1.2989072697    74.4219045316    75.1783009955     0.0132016087     0.0001212935 25014.2343218117
   -0.9612244898     1.2914086960    73.9922679079    74.7672937755     0.0135267532     0.0001212626 25016.7413746475
   -0.9591836735     1.2841011890    73.5735785965    74.3665976418     0.0138407934     0.0001212328 25019.2432317677
   -0.9571428571     1.2769704845    73.1650193268    73.9754434749     0.0141445697     0.0001212042 25021.7399244447
   -0.9551020408     1.2700040004    72.7658691871    73.5931529655     0.0144388258     0.0001211773 25024.2314905621
   -0.9530612245     1.2631905710    72.3754884407    73.2191244169     0.0147242255     0.0001211521 25026.7179824576
   -0.9510204082     1.2565202341    71.9933062850    72.8528212221     0.0150013656     0.0001211289 25029.1994622017
   -0.9489795918     1.2499840563    71.6188108859    72.4937621677     0.0152707807     0.0001211078 25031.6759938569
   -0.9469387755     1.2435739909    71.2515411916    72.1415132262     0.0155329423     0.0001210888 25034.1476426007
   -0.9448979592     1.2372827589    70.8910801509    71.7956819084     0.0157882791     0.0001210721 25036.6144741363
   -0.9428571429     1.2311037506    70.5370490537    71.4559115938     0.0160371767     0.0001210577 25039.0765542420
   -0.9408163265     1.2250309424    70.1891027733    71.1218770288     0.0162799819     0.0001210454 25041.5339484270
   -0.9387755102     1.2190588266    69.8469257429    70.7932807932     0.0165170115     0.0001210354 25043.9867216692
   -0.9367346939     1.2131823517    69.5102285299    70.4698499320     0.0167485530     0.0001210275 25046.4349382164
   -0.9346938776     1.2073968710    69.1787449051    70.1513322570     0.0169748516     0.0001210216 25048.8786614384
   -0.9326530612     1.2016980990    68.8522293213    69.8374952006     0.0171961336     0.0001210176 25051.3179520573
   -0.9306122449     1.1960820730    68.5304547326    69.5281233865     0.0174126029     0.0001210154 25053.7528584497
   -0.9285714286     1.1905451201    68.2132107017    69.2230168808     0.0176244426     0.0001210149 25056.1834344162
   -0.9265306122     1.1850838286    67.9003017483    68.9219910431     0.0178318421     0.0001210159 25058.6097277257
   -0.9244897959     1.1796950225    67.5915459031    68.6248711643     0.0180349281     0.0001210182 25061.0317780212
   -0.9224489796     1.1743757395    67.2867734365    68.3314948640     0.0182338287     0.0001210217 25063.4496177339
   -0.9204081633     1.1691232113    66.9858257369    68.0417110510     0.0184286753     0.0001210263 25065.8632728791
   -0.9183673469     1.1639348463    66.6885543185    67.7553773206     0.0186195739     0.0001210316 25068.2727637511
   -0.9163265306     1.1588082142    66.3948199388    67.4723590420     0.0188066052     0.0001210376 25070.6781055329
   -0.9142857143     1.1537410325    66.1044918138    67.1925309788     0.0189898658     0.0001210440 25073.0793088317
   -0.9122448980     1.1487311539    65.8174469161    66.9157738655     0.0191694215     0.0001210507 25075.4763801515
   -0.9102040816     1.1437765557    65.5335693460    66.6419756386     0.0193453393     0.0001210575 25077.8693217709
   -0.9081632653     1.1388753294    65.2527497676    66.3710300938     0.0195176737     0.0001210641 25080.2581228701
   -0.9061224490     1.1340256726    64.9748848997    66.1028372450     0.0196864822     0.0001210704 25082.6427703767
   -0.9040816327     1.1292258803    64.6998770572    65.8373009365     0.0198517917     0.0001210761 25085.0232463590
   -0.9020408163     1.1244743380    64.4276337361    65.5743322367     0.0200136644     0.0001210812 25087.3995256343
   -0.9000000000     1.1197695150    64.1580672368    65.3138435547     0.0201721022     0.0001210854 25089.7715764902
   -0.8979591837     1.1151099586    63.8910943224    65.0557555864     0.0203271737     0.0001210886 25092.1393613295
   -0.8959183673     1.1104942885    63.6266359071    64.7999876707     0.0204788516     0.0001210905 25094.5028372476
   -0.8938775510     1.1059211919    63.3646167727    64.5464696407     0.0206272238     0.0001210911 25096.8619565503
   -0.8918367347     1.1013894190    63.1049653087    64.2951262548     0.0207722271     0.0001210900 25099.2166672191
   -0.8897959184     1.0968977787    62.8476132749    64.0458948863     0.0209139595     0.0001210873 25101.5669133295
   -0.8877551020     1.0924451350    62.5924955840    63.7987078323     0.0210523752     0.0001210827 25103.9126354279
   -0.8857142857     1.0880304035    62.3395501007    63.5535053032     0.0211875153     0.0001210761 25106.2537708717
   -0.8836734694     1.0836525480    62.0887174586    63.3102300601     0.0213194168     0.0001210675 25108.5902523876
   -0.8816326531     1.0793105778    61.8399408902    63.0688207822     0.0214480002     0.0001210565 25110.9220038788
   -0.8795918367     1.0750035447    61.5931660703    62.8292300855     0.0215733868     0.0001210432 25113.2489491819
   -0.8775510204     1.0707305406    61.3483409720    62.5914025483     0.0216955173     0.0001210274 25115.5710094669
   -0.8755102041     1.0664906953    61.1054157324    62.3552885191     0.0218143954     0.0001210090 25117.8881031424
   -0.8734693878     1.0622831742    60.8643425293    62.1208451650     0.0219301081     0.0001209881 25120.2001461115
   -0.8714285714     1.0581071761    60.6250754655    61.8880217924     0.0220425717     0.0001209643 25122.5070520056
   -0.8693877551     1.0539619319    60.3875704629    61.6567764321     0.0221518230     0.0001209375 25124.8087323964
   -0.8673469388     1.0498467020    60.1517851626    61.4270712019     0.0222579403     0.0001209081 25127.1050969903
   -0.8653061224     1.0457607758    59.9176788330    61.1988620750     0.0223608659     0.0001208756 25129.3960538048
   -0.8632653061     1.0417034691    59.6852122830    60.9721087912     0.0224605812     0.0001208400 25131.6815093300
   -0.8612244898     1.0376741234    59.4543477825    60.7467800828     0.0225571990     0.0001208014 25133.9613686763
   -0.8591836735     1.0336721045    59.2250489867    60.5228404941     0.0226507348     0.0001207599 25136.2355357092
   -0.8571428571     1.0296968008    58.9972808661    60.3002470200     0.0227410494     0.0001207149 25138.5039142748
   -0.8551020408     1.0257476230    58.7710096411    60.0789745880     0.0228282948     0.0001206668 25140.7664095261
   -0.8530612245     1.0218240020    58.5462027200    59.8589927029     0.0229125076     0.0001206157 25143.0229256310
   -0.8510204082     1.0179253889    58.3228286418    59.6402710287     0.0229937074     0.0001205615 25145.2733674940
   -0.8489795918     1.0140512533    58.1008570218    59.4227713941     0.0230717582     0.0001205037 25147.5176407964
   -0.8469387755     1.0102010827    57.8802585008    59.2064740422     0.0231468278     0.0001204428 25149.7556519813
   -0.8448979592     1.0063743820    57.6610046973    58.9913525867     0.0232189509     0.0001203789 25151.9873082377
   -0.8428571429     1.0025706719    57.4430681625    58.7773810049     0.0232881524     0.0001203119 25154.2125174851
   -0.8408163265     0.9987894889    57.2264223382    58.5645309311     0.0233544007     0.0001202416 25156.4311883577
   -0.8387755102     0.9950303845    57.0110415164    58.3527761220     0.0234176866     0.0001201681 25158.6432301897
   -0.8367346939     0.9912929239    56.7969008020    58.1420989161     0.0234781362     0.0001200915 25160.8485529993
   -0.8346938776     0.9875766864    56.5839760772    57.9324769433     0.0235357801     0.0001200119 25163.0470674741
   -0.8326530612     0.9838812640    56.3722439680    57.7238886493     0.0235906500     0.0001199295 25165.2386894453
   -0.8306122449     0.9802062611    56.1616818123    57.5163132630     0.0236427790     0.0001198441 25167.4233398016
   -0.8285714286     0.9765512941    55.9522676300    57.3097238222     0.0236920800     0.0001197555 25169.6009349866
   -0.8265306122     0.9729159908    55.7439800947    57.1041078464     0.0237387075     0.0001196640 25171.7713947705
   -0.8244897959     0.9692999900    55.5367985066    56.8994471768     0.0237827058     0.0001195699 25173.9346422351
   -0.8224489796     0.9657029407    55.3307027670    56.6957238988     0.0238241131     0.0001194730 25176.0906036154
   -0.8204081633     0.9621245024    55.1256733545    56.4929207356     0.0238629685     0.0001193735 25178.2392081499
   -0.8183673469     0.9585643440    54.9216913014    56.2910210233     0.0238993122     0.0001192715 25180.3803879399
   -0.8163265306     0.9550221437    54.7187381727    56.0900083820     0.0239331801     0.0001191669 25182.5140778162
   -0.8142857143     0.9514975886    54.5167960447    55.8898626776     0.0239645336     0.0001190597 25184.6402152122
   -0.8122448980     0.9479903746    54.3158474857    55.6905742287     0.0239935080     0.0001189501 25186.7587400452
   -0.8102040816     0.9445002057    54.1158755372    55.4921285921     0.0240201471     0.0001188382 25188.8695946044
   -0.8081632653     0.9410267938    53.9168636960    55.2945118209     0.0240444957     0.0001187242 25190.9727241507
   -0.8061224490     0.9375698586    53.7187958976    55.0977104433     0.0240665989     0.0001186080 25193.0680758638
   -0.8040816327     0.9341291270    53.5216564995    54.9017114428     0.0240865026     0.0001184898 25195.1555996128
   -0.8020408163     0.9307043332    53.3254302661    54.7065022393     0.0241042531     0.0001183696 25197.2352488696
   -0.8000000000     0.9272952180    53.1301023542    54.5120706702     0.0241198973     0.0001182476 25199.3069805471
   -0.7979591837     0.9239015290    52.9356582985    54.3184049723     0.0241334822     0.0001181238 25201.3707548460
   -0.7959183673     0.9205230201    52.7420839987    54.1254937650     0.0241450553     0.0001179983 25203.4265351092
   -0.7938775510     0.9171594514    52.5493657065    53.9333240111     0.0241546291     0.0001178711 25205.4742876841
   -0.7918367347     0.9138105888    52.3574900132    53.7418869638     0.0241622849     0.0001177423 25207.5139817911
   -0.7897959184     0.9104762040    52.1664438387    53.5511726884     0.0241680777     0.0001176122 25209.5455893988
   -0.7877551020     0.9071560743    51.9762144194    53.3611711594     0.0241720551     0.0001174806 25211.5690851060
   -0.7857142857     0.9038499823    51.7867892983    53.1718726535     0.0241742650     0.0001173479 25213.5844460285
   -0.7836734694     0.9005577156    51.5981563144    52.9832677362     0.0241747548     0.0001172140 25215.5916517040
   -0.7816326531     0.8972790671    51.4103035930    52.7953472478     0.0241735721     0.0001170790 25217.5906857989
   -0.7795918367     0.8940138344    51.2232195364    52.6081022912     0.0241707638     0.0001169430 25219.5815341859
   -0.7775510204     0.8907618196    51.0368928148    52.4215242183     0.0241663769     0.0001168062 25221.5641844675
   -0.7755102041     0.8875228296    50.8513123577    52.2356046190     0.0241604578     0.0001166685 25223.5386271676
   -0.7734693878     0.8842966755    50.6664673458    52.0503353093     0.0241530524     0.0001165301 25225.5048556113
   -0.7714285714     0.8810831728    50.4823472028    51.8657083203     0.0241442062     0.0001163911 25227.4628658108
   -0.7693877551     0.8778821410    50.2989415880    51.6817158876     0.0241339643     0.0001162515 25229.4126563574
   -0.7673469388     0.8746934035    50.1162403889    51.4983504413     0.0241223710     0.0001161114 25231.3542283168
   -0.7653061224     0.8715167878    49.9342337142    51.3156045960     0.0241094701     0.0001159709 25233.2875851307
   -0.7632653061     0.8683521249    49.7529118872    51.1334711419     0.0240953045     0.0001158301 25235.2127325220
   -0.7612244898     0.8651992496    49.5722654391    50.9519430354     0.0240799167     0.0001156891 25237.1296784046
   -0.7591836735     0.8620580001    49.3922851027    50.7710133913     0.0240633481     0.0001155479 25239.0384327970
   -0.7571428571     0.8589282182    49.2129618067    50.5906754743     0.0240456396     0.0001154066 25240.9390077401
   -0.7551020408     0.8558097488    49.0342866700    50.4109226914     0.0240268312     0.0001152654 25242.8314172183
   -0.7530612245     0.8527024401    48.8562509955    50.2317485849     0.0240069618     0.0001151241 25244.7156770840
   -0.7510204082     0.8496061434    48.6788462656    50.0531468249     0.0239860697     0.0001149830 25246.5918049860
   -0.7489795918     0.8465207132    48.5020641364    49.8751112036     0.0239641921     0.0001148421 25248.4598203003
   -0.7469387755     0.8434460067    48.3258964330    49.6976356284     0.0239413654     0.0001147014 25250.3197440642
   -0.7448979592     0.8403818842    48.1503351447    49.5207141162     0.0239176251     0.0001145610 25252.1715989133
   -0.7428571429     0.8373282086    47.9753724206    49.3443407883     0.0238930054     0.0001144211 25254.0154090210
   -0.7408163265     0.8342848456    47.8010005647    49.1685098647     0.0238675398     0.0001142815 25255.8512000407
   -0.7387755102     0.8312516635    47.6272120320    48.9932156592     0.0238412609     0.0001141425 25257.6789990008
   -0.7367346939     0.8282285332    47.4539994242    48.8184525753     0.0238142000     0.0001140040 25259.4988327933
   -0.7346938776     0.8252153280    47.2813554856    48.6442151015     0.0237863875     0.0001138660 25261.3107313184
   -0.7326530612     0.8222119238    47.1092730996    48.4704978074     0.0237578530     0.0001137288 25263.1147264223
   -0.7306122449     0.8192181987    46.9377452847    48.2972953399     0.0237286248     0.0001135922 25264.9108507041
   -0.7285714286     0.8162340331    46.7667651908    48.1246024199     0.0236987304     0.0001134564 25266.6991374866
   -0.7265306122     0.8132593097    46.5963260961    47.9524138386     0.0236681961     0.0001133213 25268.4796207873
   -0.7244897959     0.8102939134    46.4264214035    47.7807244548     0.0236370473     0.0001131871 25270.2523352914
   -0.7224489796     0.8073377312    46.2570446372    47.6095291918     0.0236053086     0.0001130537 25272.0173163255
   -0.7204081633     0.8043906520    46.0881894401    47.4388235570     0.0235730123     0.0001129213 25273.7745998327
   -0.7183673469     0.8014525670    45.9198495701    47.2686024014     0.0235401777     0.0001127898 25275.5242223485
   -0.7163265306     0.7985233692    45.7520188977    47.0988606562     0.0235068232     0.0001126593 25277.2662209776
   -0.7142857143     0.7956029535    45.5846914028    46.9295934790     0.0234729693     0.0001125298 25279.0006333720
   -0.7122448980     0.7926912167    45.4178611722    46.7607960801     0.0234386358     0.0001124013 25280.7274977100
   -0.7102040816     0.7897880574    45.2515223968    46.5924637206     0.0234038412     0.0001122738 25282.4468526753
   -0.7081632653     0.7868933760    45.0856693690    46.4245917114     0.0233686033     0.0001121474 25284.1587374383
   -0.7061224490     0.7840070746    44.9202964804    46.2571754114     0.0233329390     0.0001120222 25285.8631916367
   -0.7040816327     0.7811290570    44.7553982192    46.0902102264     0.0232968644     0.0001118980 25287.5602553582
   -0.7020408163     0.7782592286    44.5909691678    45.9236916080     0.0232603946     0.0001117750 25289.2499691227
   -0.7000000000     0.7753974966    44.4270040008    45.7576150528     0.0232235439     0.0001116531 25290.9323738664
   -0.6979591837     0.7725437695    44.2634974825    45.5919761014     0.0231863259     0.0001115324 25292.6075108779
   -0.6959183673     0.7696979575    44.1004444649    45.4267703861     0.0231487543     0.0001114128 25294.2754194121
