shape model output for Uranus's 1-bar isobaric surface. models are described in Mankovich et al. 2026, PSJ.
this model assumes the symmetric wind profile from Sromovsky et al. (2015, Icarus 258) Equation (2).
these solutions vary the polar radius to fit the pair of Voyager 2 occultations reported in Lindal et al. 1987 to a Gaussian standard deviation of 50 m.
the wind fit spectral coefficients are also allowed to vary within their Gaussian uncertainties following S15 Table 5 (Fit 1).
this model has l=0,2,..., 18 wind spectral cofficients:  -1.235650 -3.623158 -0.106032  0.834220  0.279658 -0.147820 -0.233746  0.041517  0.097552 -0.030411
mu=sin(phi), phi [radians], and lat_deg [degrees] refer to planetocentric latitude; lat_pg_deg gives planetographic latitude in degrees.
              mu          phi_rad          lat_deg       lat_pg_deg          psi_rad    omega_rad_s-1             r_km 
   -1.0000000000     1.5707963268    90.0000000000    90.0000000000     0.0000000000     0.0001212303 24968.3928879046
   -0.9998144712     1.5515331758    88.8963027451    88.9522213054     0.0009759630     0.0001212317 24968.6276157911
   -0.9996289425     1.5435536961    88.4391122386    88.5181786352     0.0013799689     0.0001212331 24968.8623135395
   -0.9994434137     1.5374305386    88.0882811581    88.1850996767     0.0016898019     0.0001212345 24969.0969822967
   -0.9992578850     1.5322682374    87.7925030866    87.9042790851     0.0019508592     0.0001212358 24969.3316219552
   -0.9990723562     1.5277199472    87.5319052508    87.6568517930     0.0021807286     0.0001212372 24969.5662323379
   -0.9988868275     1.5236077873    87.2962958471    87.4331428901     0.0023884315     0.0001212385 24969.8008132859
   -0.9987012987     1.5198260904    87.0796205724    87.2274052257     0.0025793288     0.0001212398 24970.0353646648
   -0.9985157699     1.5163060092    86.8779347757    87.0358942678     0.0027569132     0.0001212412 24970.2698863603
   -0.9983302412     1.5129997231    86.6884985354    86.8560091429     0.0029236116     0.0001212425 24970.5043782743
   -0.9981447124     1.5098724146    86.5093169626    86.6858562191     0.0030811913     0.0001212438 24970.7388403214
   -0.9979591837     1.5068978001    86.3388841007    86.5240059933     0.0032309865     0.0001212450 24970.9732724263
   -0.9959183673     1.4804147767    84.8215186329    85.0827882105     0.0045600144     0.0001212583 24973.5500339333
   -0.9938775510     1.4600831244    83.6566007642    83.9759315641     0.0055733739     0.0001212703 24976.1231108575
   -0.9918367347     1.4429339318    82.6740244067    83.0419901713     0.0064222141     0.0001212811 24978.6924608905
   -0.9897959184     1.4278174270    81.8079124837    82.2184483933     0.0071652033     0.0001212907 24981.2580367075
   -0.9877551020     1.4141440401    81.0244851196    81.4732538251     0.0078324915     0.0001212994 24983.8197963577
   -0.9857142857     1.4015635991    80.3036789465    80.7873714125     0.0084420261     0.0001213071 24986.3777005181
   -0.9836734694     1.3898479862    79.6324237728    80.1484023955     0.0090055258     0.0001213140 24988.9317134511
   -0.9816326531     1.3788387766    79.0016425268    79.5477371567     0.0095311493     0.0001213202 24991.4818027266
   -0.9795918367     1.3684206412    78.4047273409    78.9791088791     0.0100248490     0.0001213257 24994.0279387286
   -0.9775510204     1.3585065303    77.8366906282    78.4377881380     0.0104911307     0.0001213306 24996.5700941857
   -0.9755102041     1.3490288258    77.2936581616    77.9201017033     0.0109335024     0.0001213350 24999.1082437767
   -0.9734693878     1.3399337634    76.7725494708    77.4231293447     0.0113547608     0.0001213389 25001.6423638088
   -0.9714285714     1.3311777582    76.2708673246    76.9445040799     0.0117571793     0.0001213423 25004.1724319591
   -0.9693877551     1.3227248956    75.7865539757    76.4822757603     0.0121426358     0.0001213454 25006.6984269769
   -0.9673469388     1.3145451659    75.3178899826    76.0348149801     0.0125127017     0.0001213481 25009.2203306585
   -0.9653061224     1.3066131882    74.8634211408    75.6007440587     0.0128687126     0.0001213505 25011.7381268197
   -0.9632653061     1.2989072697    74.4219045316    75.1788853839     0.0132118082     0.0001213526 25014.2517993425
   -0.9612244898     1.2914086960    73.9922679079    74.7682233944     0.0135429781     0.0001213543 25016.7613322134
   -0.9591836735     1.2841011890    73.5735785965    74.3678745566     0.0138630797     0.0001213559 25019.2667095567
   -0.9571428571     1.2769704845    73.1650193268    73.9770649118     0.0141728691     0.0001213571 25021.7679156532
   -0.9551020408     1.2700040004    72.7658691871    73.5951117375     0.0144730128     0.0001213581 25024.2649349498
   -0.9530612245     1.2631905710    72.3754884407    73.2214091790     0.0147641021     0.0001213588 25026.7577520615
   -0.9510204082     1.2565202341    71.9933062850    72.8554166412     0.0150466642     0.0001213592 25029.2463517707
   -0.9489795918     1.2499840563    71.6188108859    72.4966493729     0.0153211719     0.0001213594 25031.7307190221
   -0.9469387755     1.2435739909    71.2515411916    72.1446707673     0.0155880517     0.0001213592 25034.2108389173
   -0.9448979592     1.2372827589    70.8910801509    71.7990858055     0.0158476883     0.0001213588 25036.6866966879
   -0.9428571429     1.2311037506    70.5370490537    71.4595357455     0.0161004301     0.0001213580 25039.1582732539
   -0.9408163265     1.2250309424    70.1891027733    71.1256936153     0.0163465939     0.0001213568 25041.6255512428
   -0.9387755102     1.2190588266    69.8469257429    70.7972603388     0.0165864677     0.0001213552 25044.0885147268
   -0.9367346939     1.2131823517    69.5102285299    70.4739614930     0.0168203133     0.0001213532 25046.5471452580
   -0.9346938776     1.2073968710    69.1787449051    70.1555447776     0.0170483739     0.0001213507 25049.0014222758
   -0.9326530612     1.2016980990    68.8522293213    69.8417773630     0.0172708714     0.0001213477 25051.4513234471
   -0.9306122449     1.1960820730    68.5304547326    69.5324439168     0.0174880103     0.0001213442 25053.8968249511
   -0.9285714286     1.1905451201    68.2132107017    69.2273448183     0.0176999794     0.0001213401 25056.3379017193
   -0.9265306122     1.1850838286    67.9003017483    68.9262938381     0.0179069401     0.0001213354 25058.7745276382
   -0.9244897959     1.1796950225    67.5915459031    68.6291186363     0.0181090604     0.0001213299 25061.2066757206
   -0.9224489796     1.1743757395    67.2867734365    68.3356581976     0.0183064926     0.0001213238 25063.6343182514
   -0.9204081633     1.1691232113    66.9858257369    68.0457612714     0.0184993649     0.0001213168 25066.0574269114
   -0.9183673469     1.1639348463    66.6885543185    67.7592863275     0.0186877990     0.0001213090 25068.4759728778
   -0.9163265306     1.1588082142    66.3948199388    67.4761018778     0.0188719300     0.0001213004 25070.8899214390
   -0.9142857143     1.1537410325    66.1044918138    67.1960821991     0.0190518463     0.0001212908 25073.2992376060
   -0.9122448980     1.1487311539    65.8174469161    66.9191106043     0.0192276586     0.0001212803 25075.7038885871
   -0.9102040816     1.1437765557    65.5335693460    66.6450772590     0.0193994727     0.0001212687 25078.1038388595
   -0.9081632653     1.1388753294    65.2527497676    66.3738759053     0.0195673424     0.0001212560 25080.4990504951
   -0.9061224490     1.1340256726    64.9748848997    66.1054107707     0.0197313987     0.0001212423 25082.8894834469
   -0.9040816327     1.1292258803    64.6998770572    65.8395850920     0.0198916577     0.0001212272 25085.2750958014
   -0.9020408163     1.1244743380    64.4276337361    65.5763141164     0.0200482547     0.0001212110 25087.6558440023
   -0.9000000000     1.1197695150    64.1580672368    65.3155103953     0.0202011940     0.0001211934 25090.0316830478
   -0.8979591837     1.1151099586    63.8910943224    65.0570980179     0.0203506036     0.0001211746 25092.4025666656
   -0.8959183673     1.1104942885    63.6266359071    64.8009970573     0.0204964687     0.0001211542 25094.7684474685
   -0.8938775510     1.1059211919    63.3646167727    64.5471402167     0.0206389276     0.0001211326 25097.1292770925
   -0.8918367347     1.1013894190    63.1049653087    64.2954535375     0.0207779393     0.0001211093 25099.4850063197
   -0.8897959184     1.0968977787    62.8476132749    64.0458765544     0.0209136395     0.0001210845 25101.8355851877
   -0.8877551020     1.0924451350    62.5924955840    63.7983433944     0.0210460146     0.0001210582 25104.1809630871
   -0.8857142857     1.0880304035    62.3395501007    63.5527959577     0.0211751348     0.0001210302 25106.5210881677
   -0.8836734694     1.0836525480    62.0887174586    63.3091785015     0.0213010636     0.0001210006 25108.8559045689
   -0.8816326531     1.0793105778    61.8399408902    63.0674321441     0.0214237639     0.0001209692 25111.1853571644
   -0.8795918367     1.0750035447    61.5931660703    62.8275100119     0.0215433659     0.0001209362 25113.5093902176
   -0.8775510204     1.0707305406    61.3483409720    62.5893589240     0.0216598493     0.0001209013 25115.8279471302
   -0.8755102041     1.0664906953    61.1054157324    62.3529307640     0.0217732448     0.0001208645 25118.1409705378
   -0.8734693878     1.0622831742    60.8643425293    62.1181829790     0.0218836441     0.0001208261 25120.4484023968
   -0.8714285714     1.0581071761    60.6250754655    61.8850674654     0.0219910089     0.0001207856 25122.7501840634
   -0.8693877551     1.0539619319    60.3875704629    61.6535430594     0.0220953900     0.0001207432 25125.0462563642
   -0.8673469388     1.0498467020    60.1517851626    61.4235718919     0.0221968658     0.0001206990 25127.3365596605
   -0.8653061224     1.0457607758    59.9176788330    61.1951120212     0.0222954151     0.0001206528 25129.6210339067
   -0.8632653061     1.0417034691    59.6852122830    60.9681246222     0.0223910443     0.0001206045 25131.8996187034
   -0.8612244898     1.0376741234    59.4543477825    60.7425775640     0.0224838512     0.0001205542 25134.1722533444
   -0.8591836735     1.0336721045    59.2250489867    60.5184360567     0.0225738629     0.0001205021 25136.4388768605
   -0.8571428571     1.0296968008    58.9972808661    60.2956604070     0.0226609979     0.0001204477 25138.6994280590
   -0.8551020408     1.0257476230    58.7710096411    60.0742237254     0.0227453766     0.0001203913 25140.9538455586
   -0.8530612245     1.0218240020    58.5462027200    59.8540956220     0.0228270374     0.0001203329 25143.2020678220
   -0.8510204082     1.0179253889    58.3228286418    59.6352461036     0.0229060059     0.0001202726 25145.4440347814
   -0.8489795918     1.0140512533    58.1008570218    59.4176400249     0.0229821989     0.0001202099 25147.6796908847
   -0.8469387755     1.0102010827    57.8802585008    59.2012552400     0.0230557425     0.0001201452 25149.9089733150
   -0.8448979592     1.0063743820    57.6610046973    58.9860652637     0.0231266697     0.0001200785 25152.1318196057
   -0.8428571429     1.0025706719    57.4430681625    58.7720440996     0.0231950058     0.0001200098 25154.3481686052
   -0.8408163265     0.9987894889    57.2264223382    58.5591643263     0.0232607358     0.0001199390 25156.5579604145
   -0.8387755102     0.9950303845    57.0110415164    58.3474001845     0.0233238587     0.0001198659 25158.7611363288
   -0.8367346939     0.9912929239    56.7969008020    58.1367321415     0.0233844683     0.0001197908 25160.9576387820
   -0.8346938776     0.9875766864    56.5839760772    57.9271375679     0.0234425904     0.0001197138 25163.1474112946
   -0.8326530612     0.9838812640    56.3722439680    57.7185945891     0.0234982512     0.0001196348 25165.3303984244
   -0.8306122449     0.9802062611    56.1616818123    57.5110820553     0.0235514772     0.0001195537 25167.5065457192
   -0.8285714286     0.9765512941    55.9522676300    57.3045744611     0.0236022067     0.0001194705 25169.6757996734
   -0.8265306122     0.9729159908    55.7439800947    57.0990569102     0.0236505520     0.0001193853 25171.8381076855
   -0.8244897959     0.9692999900    55.5367985066    56.8945105820     0.0236965460     0.0001192982 25173.9934180184
   -0.8224489796     0.9657029407    55.3307027670    56.6909169711     0.0237402164     0.0001192091 25176.1416797624
   -0.8204081633     0.9621245024    55.1256733545    56.4882581687     0.0237815913     0.0001191182 25178.2828427986
   -0.8183673469     0.9585643440    54.9216913014    56.2865168397     0.0238206994     0.0001190254 25180.4168577655
   -0.8163265306     0.9550221437    54.7187381727    56.0856759675     0.0238575652     0.0001189308 25182.5436760268
   -0.8142857143     0.9514975886    54.5167960447    55.8857156882     0.0238921550     0.0001188341 25184.6632496401
   -0.8122448980     0.9479903746    54.3158474857    55.6866243119     0.0239245689     0.0001187357 25186.7755330932
   -0.8102040816     0.9445002057    54.1158755372    55.4883866065     0.0239548372     0.0001186355 25188.8804896403
   -0.8081632653     0.9410267938    53.9168636960    55.2909878151     0.0239829902     0.0001185336 25190.9780753599
   -0.8061224490     0.9375698586    53.7187958976    55.0944136394     0.0240090588     0.0001184301 25193.0682471345
   -0.8040816327     0.9341291270    53.5216564995    54.8986502238     0.0240330743     0.0001183249 25195.1509642038
   -0.8020408163     0.9307043332    53.3254302661    54.7036841389     0.0240550680     0.0001182181 25197.2261880580
   -0.8000000000     0.9272952180    53.1301023542    54.5095023666     0.0240750719     0.0001181097 25199.2938823363
   -0.7979591837     0.9239015290    52.9356582985    54.3160922854     0.0240931182     0.0001179999 25201.3540127309
   -0.7959183673     0.9205230201    52.7420839987    54.1234416557     0.0241092393     0.0001178885 25203.4065468964
   -0.7938775510     0.9171594514    52.5493657065    53.9315367735     0.0241234359     0.0001177756 25205.4514543625
   -0.7918367347     0.9138105888    52.3574900132    53.7403677960     0.0241357705     0.0001176613 25207.4887064525
   -0.7897959184     0.9104762040    52.1664438387    53.5499239119     0.0241462824     0.0001175457 25209.5182762044
   -0.7877551020     0.9071560743    51.9762144194    53.3601942754     0.0241550053     0.0001174287 25211.5401382972
   -0.7857142857     0.9038499823    51.7867892983    53.1711683574     0.0241619727     0.0001173106 25213.5542689798
   -0.7836734694     0.9005577156    51.5981563144    52.9828359345     0.0241672185     0.0001171912 25215.5606460039
   -0.7816326531     0.8972790671    51.4103035930    52.7951870774     0.0241707766     0.0001170707 25217.5592485598
   -0.7795918367     0.8940138344    51.2232195364    52.6082121403     0.0241726811     0.0001169491 25219.5500572156
   -0.7775510204     0.8907618196    51.0368928148    52.4219017500     0.0241729661     0.0001168264 25221.5330538587
   -0.7755102041     0.8875228296    50.8513123577    52.2362467962     0.0241716659     0.0001167028 25223.5082216409
   -0.7734693878     0.8842966755    50.6664673458    52.0512384211     0.0241688146     0.0001165782 25225.4755449250
   -0.7714285714     0.8810831728    50.4823472028    51.8668680109     0.0241644467     0.0001164527 25227.4350129854
   -0.7693877551     0.8778821410    50.2989415880    51.6831271855     0.0241585961     0.0001163264 25229.3866171771
   -0.7673469388     0.8746934035    50.1162403889    51.5000077898     0.0241512972     0.0001161993 25231.3303470731
   -0.7653061224     0.8715167878    49.9342337142    51.3175018851     0.0241425840     0.0001160715 25233.2661943370
   -0.7632653061     0.8683521249    49.7529118872    51.1356017406     0.0241324905     0.0001159430 25235.1941526415
   -0.7612244898     0.8651992496    49.5722654391    50.9542998255     0.0241210504     0.0001158139 25237.1142175898
   -0.7591836735     0.8620580001    49.3922851027    50.7735888010     0.0241082975     0.0001156842 25239.0263866408
   -0.7571428571     0.8589282182    49.2129618067    50.5934615127     0.0240942652     0.0001155541 25240.9306590367
   -0.7551020408     0.8558097488    49.0342866700    50.4139109832     0.0240789867     0.0001154234 25242.8270357347
   -0.7530612245     0.8527024401    48.8562509955    50.2349304050     0.0240624950     0.0001152924 25244.7155193412
   -0.7510204082     0.8496061434    48.6788462656    50.0565131336     0.0240448228     0.0001151610 25246.5961140489
   -0.7489795918     0.8465207132    48.5020641364    49.8786526810     0.0240260025     0.0001150293 25248.4688255766
   -0.7469387755     0.8434460067    48.3258964330    49.7013427087     0.0240060662     0.0001148974 25250.3336611116
   -0.7448979592     0.8403818842    48.1503351447    49.5245770223     0.0239850455     0.0001147653 25252.1906292548
   -0.7428571429     0.8373282086    47.9753724206    49.3483495650     0.0239629717     0.0001146330 25254.0397399674
   -0.7408163265     0.8342848456    47.8010005647    49.1726544120     0.0239398758     0.0001145007 25255.8810045206
   -0.7387755102     0.8312516635    47.6272120320    48.9974857649     0.0239157883     0.0001143683 25257.7144354471
   -0.7367346939     0.8282285332    47.4539994242    48.8228379463     0.0238907391     0.0001142359 25259.5400464946
   -0.7346938776     0.8252153280    47.2813554856    48.6487053950     0.0238647579     0.0001141036 25261.3578525811
   -0.7326530612     0.8222119238    47.1092730996    48.4750826606     0.0238378738     0.0001139714 25263.1678697524
   -0.7306122449     0.8192181987    46.9377452847    48.3019643990     0.0238101153     0.0001138394 25264.9701151408
   -0.7285714286     0.8162340331    46.7667651908    48.1293453681     0.0237815104     0.0001137076 25266.7646069261
   -0.7265306122     0.8132593097    46.5963260961    47.9572204228     0.0237520868     0.0001135760 25268.5513642977
   -0.7244897959     0.8102939134    46.4264214035    47.7855845117     0.0237218713     0.0001134447 25270.3304077482
   -0.7224489796     0.8073377312    46.2570446372    47.6144326726     0.0236908904     0.0001133138 25272.1017597857
   -0.7204081633     0.8043906520    46.0881894401    47.4437600577     0.0236591705     0.0001131832 25273.8654440209
   -0.7183673469     0.8014525670    45.9198495701    47.2735619732     0.0236267386     0.0001130530 25275.6214849112
   -0.7163265306     0.7985233692    45.7520188977    47.1038337170     0.0235936195     0.0001129234 25277.3699077301
   -0.7142857143     0.7956029535    45.5846914028    46.9345706541     0.0235598374     0.0001127942 25279.1107385388
   -0.7122448980     0.7926912167    45.4178611722    46.7657682208     0.0235254160     0.0001126656 25280.8440041582
   -0.7102040816     0.7897880574    45.2515223968    46.5974219216     0.0234903781     0.0001125376 25282.5697321422
   -0.7081632653     0.7868933760    45.0856693690    46.4295273262     0.0234547460     0.0001124102 25284.2879507525
   -0.7061224490     0.7840070746    44.9202964804    46.2620800673     0.0234185414     0.0001122834 25285.9986889333
   -0.7040816327     0.7811290570    44.7553982192    46.0950758373     0.0233817854     0.0001121573 25287.7019762885
   -0.7020408163     0.7782592286    44.5909691678    45.9285103866     0.0233444981     0.0001120320 25289.3978430581
   -0.7000000000     0.7753974966    44.4270040008    45.7623795208     0.0233066996     0.0001119074 25291.0863200970
   -0.6979591837     0.7725437695    44.2634974825    45.5966790991     0.0232684087     0.0001117836 25292.7674388536
   -0.6959183673     0.7696979575    44.1004444649    45.4314050604     0.0232296446     0.0001116606 25294.4412313496
