shape model output for Uranus's 1-bar isobaric surface. models are described in Mankovich et al. 2026, PSJ.
this model assumes the symmetric wind profile from Sromovsky et al. (2015, Icarus 258) Equation (2).
these solutions vary the polar radius to fit the pair of Voyager 2 occultations reported in Lindal et al. 1987 to a Gaussian standard deviation of 50 m.
the wind fit spectral coefficients are also allowed to vary within their Gaussian uncertainties following S15 Table 5 (Fit 1).
this model has l=0,2,..., 18 wind spectral cofficients:  -1.247110 -3.613924 -0.119852  0.825001  0.318992 -0.184301 -0.288192 -0.081634  0.113690  0.091239
mu=sin(phi), phi [radians], and lat_deg [degrees] refer to planetocentric latitude; lat_pg_deg gives planetographic latitude in degrees.
              mu          phi_rad          lat_deg       lat_pg_deg          psi_rad    omega_rad_s-1             r_km 
   -1.0000000000     1.5707963268    90.0000000000    90.0000000000     0.0000000000     0.0001215319 24967.9102480122
   -0.9998144712     1.5515331758    88.8963027451    88.9524415789     0.0009798075     0.0001215373 24968.1458871171
   -0.9996289425     1.5435536961    88.4391122386    88.5184940477     0.0013854739     0.0001215425 24968.3815071625
   -0.9994434137     1.5374305386    88.0882811581    88.1854905598     0.0016966241     0.0001215476 24968.6171125084
   -0.9992578850     1.5322682374    87.7925030866    87.9047355193     0.0019588255     0.0001215525 24968.8527016512
   -0.9990723562     1.5277199472    87.5319052508    87.6573675636     0.0021897304     0.0001215572 24969.0882730946
   -0.9988868275     1.5236077873    87.2962958471    87.4337136104     0.0023983924     0.0001215618 24969.3238256221
   -0.9987012987     1.5198260904    87.0796205724    87.2280276217     0.0025901916     0.0001215663 24969.5593582477
   -0.9985157699     1.5163060092    86.8779347757    87.0365657096     0.0027686321     0.0001215706 24969.7948701587
   -0.9983302412     1.5129997231    86.6884985354    86.8567274640     0.0029361487     0.0001215748 24970.0303606724
   -0.9981447124     1.5098724146    86.5093169626    86.6866195777     0.0030945144     0.0001215788 24970.2658292055
   -0.9979591837     1.5068978001    86.3388841007    86.5248127837     0.0032450677     0.0001215827 24970.5012752529
   -0.9959183673     1.4804147767    84.8215186329    85.0839979281     0.0045811279     0.0001216167 24973.0895979161
   -0.9938775510     1.4600831244    83.6566007642    83.9774422327     0.0055997400     0.0001216363 24975.6747030208
   -0.9918367347     1.4429339318    82.6740244067    83.0437140593     0.0064523016     0.0001216434 24978.2561354986
   -0.9897959184     1.4278174270    81.8079124837    82.2203021952     0.0071975583     0.0001216399 24980.8334978462
   -0.9877551020     1.4141440401    81.0244851196    81.4751584677     0.0078657338     0.0001216276 24983.4064572478
   -0.9857142857     1.4015635991    80.3036789465    80.7892523370     0.0084748544     0.0001216080 24985.9747396069
   -0.9836734694     1.3898479862    79.6324237728    80.1501909273     0.0090367416     0.0001215824 24988.5381261484
   -0.9816326531     1.3788387766    79.0016425268    79.5493719818     0.0095596824     0.0001215522 24991.0964223951
   -0.9795918367     1.3684206412    78.4047273409    78.9805350873     0.0100497410     0.0001215185 24993.6494898905
   -0.9775510204     1.3585065303    77.8366906282    78.4389590990     0.0105115678     0.0001214823 24996.1972359946
   -0.9755102041     1.3490288258    77.2936581616    77.9209782859     0.0109488016     0.0001214446 24998.7395975820
   -0.9734693878     1.3399337634    76.7725494708    77.4236800863     0.0113643731     0.0001214060 25001.2765311694
   -0.9714285714     1.3311777582    76.2708673246    76.9447050634     0.0117606872     0.0001213674 25003.8080114195
   -0.9693877551     1.3227248956    75.7865539757    76.4821102338     0.0121397468     0.0001213293 25006.3340483286
   -0.9673469388     1.3145451659    75.3178899826    76.0342731950     0.0125032458     0.0001212923 25008.8546608545
   -0.9653061224     1.3066131882    74.8634211408    75.5998225609     0.0128526294     0.0001212568 25011.3698883170
   -0.9632653061     1.2989072697    74.4219045316    75.1775871996     0.0131891507     0.0001212232 25013.8797864314
   -0.9612244898     1.2914086960    73.9922679079    74.7665563732     0.0135138831     0.0001211918 25016.3844223099
   -0.9591836735     1.2841011890    73.5735785965    74.3658526185     0.0138277903     0.0001211629 25018.8838708777
   -0.9571428571     1.2769704845    73.1650193268    73.9747059247     0.0141316970     0.0001211367 25021.3782122757
   -0.9551020408     1.2700040004    72.7658691871    73.5924374131     0.0144263370     0.0001211132 25023.8675299632
   -0.9530612245     1.2631905710    72.3754884407    73.2184448704     0.0147123651     0.0001210926 25026.3519088564
   -0.9510204082     1.2565202341    71.9933062850    72.8521911541     0.0149903689     0.0001210750 25028.8314399425
   -0.9489795918     1.2499840563    71.6188108859    72.4931943301     0.0152608700     0.0001210604 25031.3062199348
   -0.9469387755     1.2435739909    71.2515411916    72.1410193569     0.0155243226     0.0001210486 25033.7763414655
   -0.9448979592     1.2372827589    70.8910801509    71.7952728955     0.0157811405     0.0001210398 25036.2418929671
   -0.9428571429     1.2311037506    70.5370490537    71.4555974315     0.0160316935     0.0001210338 25038.7029589425
   -0.9408163265     1.2250309424    70.1891027733    71.1216667872     0.0162763125     0.0001210304 25041.1596202153
   -0.9387755102     1.2190588266    69.8469257429    70.7931826620     0.0165152988     0.0001210297 25043.6119541630
   -0.9367346939     1.2131823517    69.5102285299    70.4698711989     0.0167489242     0.0001210314 25046.0600349326
   -0.9346938776     1.2073968710    69.1787449051    70.1514791319     0.0169774150     0.0001210353 25048.5039336398
   -0.9326530612     1.2016980990    68.8522293213    69.8377729391     0.0172009811     0.0001210413 25050.9437134883
   -0.9306122449     1.1960820730    68.5304547326    69.5285363154     0.0174198098     0.0001210492 25053.3794272973
   -0.9285714286     1.1905451201    68.2132107017    69.2235684316     0.0176340690     0.0001210587 25055.8111322627
   -0.9265306122     1.1850838286    67.9003017483    68.9226838164     0.0178439333     0.0001210697 25058.2388747577
   -0.9244897959     1.1796950225    67.5915459031    68.6257067750     0.0180495122     0.0001210820 25060.6626909159
   -0.9224489796     1.1743757395    67.2867734365    68.3324741243     0.0182509200     0.0001210953 25063.0826078235
   -0.9204081633     1.1691232113    66.9858257369    68.0428339437     0.0184482734     0.0001211094 25065.4986445548
   -0.9183673469     1.1639348463    66.6885543185    67.7566429534     0.0186416634     0.0001211241 25067.9108130752
   -0.9163265306     1.1588082142    66.3948199388    67.4737659519     0.0188311604     0.0001211391 25070.3191190313
   -0.9142857143     1.1537410325    66.1044918138    67.1940767598     0.0190168448     0.0001211542 25072.7235624430
   -0.9122448980     1.1487311539    65.8174469161    66.9174555212     0.0191987720     0.0001211693 25075.1241383125
   -0.9102040816     1.1437765557    65.5335693460    66.6437897203     0.0193770010     0.0001211840 25077.5208371519
   -0.9081632653     1.1388753294    65.2527497676    66.3729720173     0.0195515666     0.0001211981 25079.9136361865
   -0.9061224490     1.1340256726    64.9748848997    66.1049026453     0.0197225303     0.0001212115 25082.3025053501
   -0.9040816327     1.1292258803    64.6998770572    65.8394839394     0.0198898923     0.0001212239 25084.6874130264
   -0.9020408163     1.1244743380    64.4276337361    65.5766275492     0.0200537251     0.0001212352 25087.0683195989
   -0.9000000000     1.1197695150    64.1580672368    65.3162443942     0.0202140047     0.0001212451 25089.4451782643
   -0.8979591837     1.1151099586    63.8910943224    65.0582558773     0.0203708120     0.0001212535 25091.8179357584
   -0.8959183673     1.1104942885    63.6266359071    64.8025797425     0.0205240917     0.0001212600 25094.1865330060
   -0.8938775510     1.1059211919    63.3646167727    64.5491469024     0.0206739509     0.0001212648 25096.5509057031
   -0.8918367347     1.1013894190    63.1049653087    64.2978803034     0.0208202944     0.0001212673 25098.9109848389
   -0.8897959184     1.0968977787    62.8476132749    64.0487185079     0.0209632410     0.0001212678 25101.2666971657
   -0.8877551020     1.0924451350    62.5924955840    63.8015926565     0.0211027249     0.0001212658 25103.6179656207
   -0.8857142857     1.0880304035    62.3395501007    63.5564432287     0.0212387917     0.0001212613 25105.9647097069
   -0.8836734694     1.0836525480    62.0887174586    63.3132131953     0.0213714823     0.0001212543 25108.3068463648
   -0.8816326531     1.0793105778    61.8399408902    63.0718400276     0.0215006960     0.0001212442 25110.6442902127
   -0.8795918367     1.0750035447    61.5931660703    62.8322776488     0.0216265768     0.0001212316 25112.9769465053
   -0.8775510204     1.0707305406    61.3483409720    62.5944698312     0.0217490515     0.0001212158 25115.3047179131
   -0.8755102041     1.0664906953    61.1054157324    62.3583669096     0.0218681234     0.0001211970 25117.6275057405
   -0.8734693878     1.0622831742    60.8643425293    62.1239268756     0.0219838941     0.0001211752 25119.9452100884
   -0.8714285714     1.0581071761    60.6250754655    61.8910982349     0.0220962657     0.0001211500 25122.2577300021
   -0.8693877551     1.0539619319    60.3875704629    61.6598394016     0.0222052820     0.0001211215 25124.5649636042
   -0.8673469388     1.0498467020    60.1517851626    61.4301131954     0.0223110331     0.0001210898 25126.8668082150
   -0.8653061224     1.0457607758    59.9176788330    61.2018751931     0.0224134547     0.0001210547 25129.1631604622
   -0.8632653061     1.0417034691    59.6852122830    60.9750851255     0.0225125280     0.0001210160 25131.4539163789
   -0.8612244898     1.0376741234    59.4543477825    60.7497126641     0.0226083822     0.0001209740 25133.7389714937
   -0.8591836735     1.0336721045    59.2250489867    60.5257225543     0.0227010362     0.0001209288 25136.0182209114
   -0.8571428571     1.0296968008    58.9972808661    60.3030710952     0.0227903388     0.0001208796 25138.2915593862
   -0.8551020408     1.0257476230    58.7710096411    60.0817343436     0.0228764616     0.0001208271 25140.5588813884
   -0.8530612245     1.0218240020    58.5462027200    59.8616821748     0.0229594477     0.0001207713 25142.8200811646
   -0.8510204082     1.0179253889    58.3228286418    59.6428845277     0.0230393215     0.0001207121 25145.0750527918
   -0.8489795918     1.0140512533    58.1008570218    59.4253028153     0.0231159399     0.0001206490 25147.3236902268
   -0.8469387755     1.0102010827    57.8802585008    59.2089183273     0.0231894886     0.0001205827 25149.5658926170
   -0.8448979592     1.0063743820    57.6610046973    58.9937050474     0.0232600091     0.0001205130 25151.8015657931
   -0.8428571429     1.0025706719    57.4430681625    58.7796372794     0.0233275318     0.0001204401 25154.0306089488
   -0.8408163265     0.9987894889    57.2264223382    58.5666868108     0.0233920279     0.0001203638 25156.2529242906
   -0.8387755102     0.9950303845    57.0110415164    58.3548276812     0.0234534930     0.0001202839 25158.4684171506
   -0.8367346939     0.9912929239    56.7969008020    58.1440429117     0.0235120653     0.0001202010 25160.6769958343
   -0.8346938776     0.9875766864    56.5839760772    57.9343104870     0.0235677815     0.0001201149 25162.8785714765
   -0.8326530612     0.9838812640    56.3722439680    57.7256092109     0.0236206795     0.0001200259 25165.0730579050
   -0.8306122449     0.9802062611    56.1616818123    57.5179186722     0.0236707986     0.0001199339 25167.2603715133
   -0.8285714286     0.9765512941    55.9522676300    57.3112121150     0.0237180556     0.0001198385 25169.4404311396
   -0.8265306122     0.9729159908    55.7439800947    57.1054776409     0.0237626149     0.0001197404 25171.6131579531
   -0.8244897959     0.9692999900    55.5367985066    56.9006974603     0.0238045274     0.0001196394 25173.7784753459
   -0.8224489796     0.9657029407    55.3307027670    56.6968540131     0.0238438373     0.0001195358 25175.9363088319
   -0.8204081633     0.9621245024    55.1256733545    56.4939303736     0.0238805900     0.0001194296 25178.0865862399
   -0.8183673469     0.9585643440    54.9216913014    56.2919102246     0.0239148317     0.0001193209 25180.2292443400
   -0.8163265306     0.9550221437    54.7187381727    56.0907775307     0.0239466043     0.0001192097 25182.3642194869
   -0.8142857143     0.9514975886    54.5167960447    55.8905125810     0.0239758765     0.0001190958 25184.4914493444
   -0.8122448980     0.9479903746    54.3158474857    55.6911059765     0.0240027887     0.0001189798 25186.6108757276
   -0.8102040816     0.9445002057    54.1158755372    55.4925435881     0.0240273902     0.0001188615 25188.7224444079
   -0.8081632653     0.9410267938    53.9168636960    55.2948117730     0.0240497309     0.0001187412 25190.8261049293
   -0.8061224490     0.9375698586    53.7187958976    55.0978973540     0.0240698611     0.0001186189 25192.9218104343
   -0.8040816327     0.9341291270    53.5216564995    54.9017875983     0.0240878318     0.0001184947 25195.0095174989
   -0.8020408163     0.9307043332    53.3254302661    54.7064701980     0.0241036939     0.0001183688 25197.0891859763
   -0.8000000000     0.9272952180    53.1301023542    54.5119332504     0.0241174988     0.0001182411 25199.1607788487
   -0.7979591837     0.9239015290    52.9356582985    54.3181652402     0.0241292981     0.0001181118 25201.2242620870
   -0.7959183673     0.9205230201    52.7420839987    54.1251550208     0.0241391431     0.0001179810 25203.2796045172
   -0.7938775510     0.9171594514    52.5493657065    53.9328899592     0.0241470535     0.0001178487 25205.3267776940
   -0.7918367347     0.9138105888    52.3574900132    53.7413613766     0.0241531117     0.0001177151 25207.3657557806
   -0.7897959184     0.9104762040    52.1664438387    53.5505594944     0.0241573754     0.0001175803 25209.3965165289
   -0.7877551020     0.9071560743    51.9762144194    53.3604744627     0.0241598955     0.0001174444 25211.4190435719
   -0.7857142857     0.9038499823    51.7867892983    53.1710967194     0.0241607224     0.0001173074 25213.4333207812
   -0.7836734694     0.9005577156    51.5981563144    52.9824169767     0.0241599063     0.0001171696 25215.4393349908
   -0.7816326531     0.8972790671    51.4103035930    52.7944262073     0.0241574969     0.0001170309 25217.4370761764
   -0.7795918367     0.8940138344    51.2232195364    52.6071156313     0.0241535434     0.0001168915 25219.4265373231
   -0.7775510204     0.8907618196    51.0368928148    52.4204767043     0.0241480943     0.0001167514 25221.4077142995
   -0.7755102041     0.8875228296    50.8513123577    52.2345011050     0.0241411978     0.0001166108 25223.3806057370
   -0.7734693878     0.8842966755    50.6664673458    52.0491807237     0.0241329011     0.0001164697 25225.3452129160
   -0.7714285714     0.8810831728    50.4823472028    51.8645076521     0.0241232506     0.0001163283 25227.3015396559
   -0.7693877551     0.8778821410    50.2989415880    51.6804741721     0.0241122923     0.0001161866 25229.2495922119
   -0.7673469388     0.8746934035    50.1162403889    51.4970727463     0.0241000711     0.0001160446 25231.1893791752
   -0.7653061224     0.8715167878    49.9342337142    51.3142960088     0.0240866309     0.0001159025 25233.1209113784
   -0.7632653061     0.8683521249    49.7529118872    51.1321367555     0.0240720151     0.0001157604 25235.0442018051
   -0.7612244898     0.8651992496    49.5722654391    50.9505879364     0.0240562657     0.0001156183 25236.9592655039
   -0.7591836735     0.8620580001    49.3922851027    50.7696426469     0.0240394241     0.0001154763 25238.8661195054
   -0.7571428571     0.8589282182    49.2129618067    50.5892941205     0.0240215305     0.0001153345 25240.7647827443
   -0.7551020408     0.8558097488    49.0342866700    50.4095357212     0.0240026240     0.0001151929 25242.6552759834
   -0.7530612245     0.8527024401    48.8562509955    50.2303609373     0.0239827428     0.0001150516 25244.5376217423
   -0.7510204082     0.8496061434    48.6788462656    50.0517633742     0.0239619239     0.0001149107 25246.4118441244
   -0.7489795918     0.8465207132    48.5020641364    49.8737367486     0.0239402033     0.0001147703 25248.2779679175
   -0.7469387755     0.8434460067    48.3258964330    49.6962748833     0.0239176160     0.0001146303 25250.1360211020
   -0.7448979592     0.8403818842    48.1503351447    49.5193717010     0.0238941955     0.0001144909 25251.9860333208
   -0.7428571429     0.8373282086    47.9753724206    49.3430212201     0.0238699746     0.0001143522 25253.8280352599
   -0.7408163265     0.8342848456    47.8010005647    49.1672175494     0.0238449847     0.0001142141 25255.6620586060
   -0.7387755102     0.8312516635    47.6272120320    48.9919548839     0.0238192562     0.0001140767 25257.4881360072
   -0.7367346939     0.8282285332    47.4539994242    48.8172275008     0.0237928184     0.0001139400 25259.3063010346
   -0.7346938776     0.8252153280    47.2813554856    48.6430297557     0.0237656994     0.0001138042 25261.1165881459
   -0.7326530612     0.8222119238    47.1092730996    48.4693560791     0.0237379261     0.0001136693 25262.9190326505
   -0.7306122449     0.8192181987    46.9377452847    48.2962009731     0.0237095245     0.0001135352 25264.7136706760
   -0.7285714286     0.8162340331    46.7667651908    48.1235590087     0.0236805194     0.0001134020 25266.5005391362
   -0.7265306122     0.8132593097    46.5963260961    47.9514248226     0.0236509345     0.0001132699 25268.2796757004
   -0.7244897959     0.8102939134    46.4264214035    47.7797931151     0.0236207924     0.0001131387 25270.0511187638
   -0.7224489796     0.8073377312    46.2570446372    47.6086586475     0.0235901147     0.0001130085 25271.8149074199
   -0.7204081633     0.8043906520    46.0881894401    47.4380169189     0.0235589338     0.0001128795 25273.5710814329
   -0.7183673469     0.8014525670    45.9198495701    47.2678625036     0.0235272640     0.0001127515 25275.3196812119
   -0.7163265306     0.7985233692    45.7520188977    47.0981901010     0.0234951198     0.0001126246 25277.0607477867
   -0.7142857143     0.7956029535    45.5846914028    46.9289946942     0.0234625186     0.0001124989 25278.7943227832
   -0.7122448980     0.7926912167    45.4178611722    46.7602713181     0.0234294770     0.0001123744 25280.5204482211
   -0.7102040816     0.7897880574    45.2515223968    46.5920150572     0.0233960105     0.0001122510 25282.2391628578
   -0.7081632653     0.7868933760    45.0856693690    46.4242210457     0.0233621340     0.0001121287 25283.9505077859
   -0.7061224490     0.7840070746    44.9202964804    46.2568844660     0.0233278611     0.0001120077 25285.6545253982
   -0.7040816327     0.7811290570    44.7553982192    46.0900005478     0.0232932048     0.0001118879 25287.3512577791
   -0.7020408163     0.7782592286    44.5909691678    45.9235645675     0.0232581773     0.0001117693 25289.0407467094
   -0.7000000000     0.7753974966    44.4270040008    45.7575718477     0.0232227898     0.0001116519 25290.7230336699
   -0.6979591837     0.7725437695    44.2634974825    45.5920177563     0.0231870530     0.0001115357 25292.3981598461
   -0.6959183673     0.7696979575    44.1004444649    45.4268977584     0.0231509773     0.0001114208 25294.0661661322
