shape model output for Uranus's 1-bar isobaric surface. models are described in Mankovich et al. 2026, PSJ.
this model assumes the symmetric wind profile from Sromovsky et al. (2015, Icarus 258) Equation (2).
these solutions vary the polar radius to fit the pair of Voyager 2 occultations reported in Lindal et al. 1987 to a Gaussian standard deviation of 50 m.
the wind fit spectral coefficients are also allowed to vary within their Gaussian uncertainties following S15 Table 5 (Fit 1).
this model has l=0,2,..., 18 wind spectral cofficients:  -1.245562 -3.604303 -0.117177  0.862007  0.284795 -0.259672 -0.271530 -0.020730  0.083208  0.036802
mu=sin(phi), phi [radians], and lat_deg [degrees] refer to planetocentric latitude; lat_pg_deg gives planetographic latitude in degrees.
              mu          phi_rad          lat_deg       lat_pg_deg          psi_rad    omega_rad_s-1             r_km 
   -1.0000000000     1.5707963268    90.0000000000    90.0000000000     0.0000000000     0.0001218523 24968.1587534449
   -0.9998144712     1.5515331758    88.8963027451    88.9526701770     0.0009837973     0.0001218492 24968.3953687456
   -0.9996289425     1.5435536961    88.4391122386    88.5188087253     0.0013909661     0.0001218461 24968.6319392071
   -0.9994434137     1.5374305386    88.0882811581    88.1858655835     0.0017031695     0.0001218430 24968.8684677464
   -0.9992578850     1.5322682374    87.7925030866    87.9051567569     0.0019661775     0.0001218399 24969.1049540397
   -0.9990723562     1.5277199472    87.5319052508    87.6578254888     0.0021977227     0.0001218367 24969.3413976014
   -0.9988868275     1.5236077873    87.2962958471    87.4342012229     0.0024069029     0.0001218335 24969.5777980037
   -0.9987012987     1.5198260904    87.0796205724    87.2285392562     0.0025991213     0.0001218302 24969.8141548874
   -0.9985157699     1.5163060092    86.8779347757    87.0370968427     0.0027779021     0.0001218268 24970.0504679495
   -0.9983302412     1.5129997231    86.6884985354    86.8572742753     0.0029456924     0.0001218235 24970.2867369313
   -0.9981447124     1.5098724146    86.5093169626    86.6871787803     0.0031042743     0.0001218201 24970.5229616092
   -0.9979591837     1.5068978001    86.3388841007    86.5253815107     0.0032549939     0.0001218167 24970.7591417872
   -0.9959183673     1.4804147767    84.8215186329    85.0845482675     0.0045907332     0.0001217766 24973.3541471465
   -0.9938775510     1.4600831244    83.6566007642    83.9778520551     0.0056068928     0.0001217330 24975.9436128504
   -0.9918367347     1.4429339318    82.6740244067    83.0439304584     0.0064560785     0.0001216868 24978.5274550585
   -0.9897959184     1.4278174270    81.8079124837    82.2203049205     0.0071976058     0.0001216388 24981.1055806657
   -0.9877551020     1.4141440401    81.0244851196    81.4749456729     0.0078620198     0.0001215896 24983.6779399940
   -0.9857142857     1.4015635991    80.3036789465    80.7888335495     0.0084675452     0.0001215400 24986.2445144710
   -0.9836734694     1.3898479862    79.6324237728    80.1495825483     0.0090261234     0.0001214904 24988.8052980055
   -0.9816326531     1.3788387766    79.0016425268    79.5485939374     0.0095461030     0.0001214414 24991.3602922863
   -0.9795918367     1.3684206412    78.4047273409    78.9796098802     0.0100335931     0.0001213934 24993.9095277754
   -0.9775510204     1.3585065303    77.8366906282    78.4379093207     0.0104932457     0.0001213468 24996.4530332863
   -0.9755102041     1.3490288258    77.2936581616    77.9198263013     0.0109286957     0.0001213019 24998.9908569284
   -0.9734693878     1.3399337634    76.7725494708    77.4224471980     0.0113428551     0.0001212591 25001.5230632535
   -0.9714285714     1.3311777582    76.2708673246    76.9434109372     0.0117381004     0.0001212185 25004.0497257470
   -0.9693877551     1.3227248956    75.7865539757    76.4807726231     0.0121164011     0.0001211803 25006.5709222609
   -0.9673469388     1.3145451659    75.3178899826    76.0329082383     0.0124794228     0.0001211448 25009.0867321914
   -0.9653061224     1.3066131882    74.8634211408    75.5984435133     0.0128285605     0.0001211119 25011.5972347240
   -0.9632653061     1.2989072697    74.4219045316    75.1762056768     0.0131650385     0.0001210818 25014.1025116531
   -0.9612244898     1.2914086960    73.9922679079    74.7651813404     0.0134898842     0.0001210545 25016.6026552400
   -0.9591836735     1.2841011890    73.5735785965    74.3644912600     0.0138040301     0.0001210301 25019.0977572003
   -0.9571428571     1.2769704845    73.1650193268    73.9733632039     0.0141082621     0.0001210085 25021.5879072264
   -0.9551020408     1.2700040004    72.7658691871    73.5911164118     0.0144032812     0.0001209897 25024.0731926500
   -0.9530612245     1.2631905710    72.3754884407    73.2171469418     0.0146897120     0.0001209736 25026.5536982315
   -0.9510204082     1.2565202341    71.9933062850    72.8509160136     0.0149681135     0.0001209603 25029.0295060542
   -0.9489795918     1.2499840563    71.6188108859    72.4919401831     0.0152389810     0.0001209495 25031.5006954890
   -0.9469387755     1.2435739909    71.2515411916    72.1397831646     0.0155027470     0.0001209413 25033.9673432084
   -0.9448979592     1.2372827589    70.8910801509    71.7940504994     0.0157598056     0.0001209354 25036.4295232328
   -0.9428571429     1.2311037506    70.5370490537    71.4543837194     0.0160105103     0.0001209318 25038.8873069987
   -0.9408163265     1.2250309424    70.1891027733    71.1204558596     0.0162551779     0.0001209302 25041.3407609055
   -0.9387755102     1.2190588266    69.8469257429    70.7919679120     0.0164940974     0.0001209306 25043.7899389620
   -0.9367346939     1.2131823517    69.5102285299    70.4686454162     0.0167275303     0.0001209328 25046.2348997764
   -0.9346938776     1.2073968710    69.1787449051    70.1502349121     0.0169556993     0.0001209367 25048.6756944530
   -0.9326530612     1.2016980990    68.8522293213    69.8365027085     0.0171788113     0.0001209420 25051.1123658657
   -0.9306122449     1.1960820730    68.5304547326    69.5272324623     0.0173970533     0.0001209485 25053.5449496708
   -0.9285714286     1.1905451201    68.2132107017    69.2222234214     0.0176105942     0.0001209562 25055.9734751757
   -0.9265306122     1.1850838286    67.9003017483    68.9212897486     0.0178196022     0.0001209648 25058.3979660863
   -0.9244897959     1.1796950225    67.5915459031    68.6242564543     0.0180241993     0.0001209742 25060.8184411540
   -0.9224489796     1.1743757395    67.2867734365    68.3309608232     0.0182245079     0.0001209841 25063.2349147360
   -0.9204081633     1.1691232113    66.9858257369    68.0412510620     0.0184206469     0.0001209944 25065.6473972836
   -0.9183673469     1.1639348463    66.6885543185    67.7549843346     0.0186127150     0.0001210049 25068.0558944230
   -0.9163265306     1.1588082142    66.3948199388    67.4720264062     0.0188007996     0.0001210154 25070.4603982230
   -0.9142857143     1.1537410325    66.1044918138    67.1922512888     0.0189849843     0.0001210258 25072.8609019372
   -0.9122448980     1.1487311539    65.8174469161    66.9155400226     0.0191653402     0.0001210358 25075.2573933096
   -0.9102040816     1.1437765557    65.5335693460    66.6417808645     0.0193419398     0.0001210454 25077.6498530502
   -0.9081632653     1.1388753294    65.2527497676    66.3708669603     0.0195148264     0.0001210543 25080.0382555952
   -0.9061224490     1.1340256726    64.9748848997    66.1026996025     0.0196840799     0.0001210624 25082.4225697797
   -0.9040816327     1.1292258803    64.6998770572    65.8371816927     0.0198497105     0.0001210695 25084.8027594340
   -0.9020408163     1.1244743380    64.4276337361    65.5742257880     0.0200118065     0.0001210755 25087.1787839135
   -0.9000000000     1.1197695150    64.1580672368    65.3137436322     0.0201703582     0.0001210801 25089.5505985701
   -0.8979591837     1.1151099586    63.8910943224    65.0556572647     0.0203254577     0.0001210835 25091.9181551724
   -0.8959183673     1.1104942885    63.6266359071    64.7998855342     0.0204770689     0.0001210852 25094.2814022810
   -0.8938775510     1.1059211919    63.3646167727    64.5463596429     0.0206253040     0.0001210853 25096.6402855843
   -0.8918367347     1.1013894190    63.1049653087    64.2950039757     0.0207700930     0.0001210835 25098.9947467475
   -0.8897959184     1.0968977787    62.8476132749    64.0457571106     0.0209115548     0.0001210799 25101.3447203186
   -0.8877551020     1.0924451350    62.5924955840    63.7985514574     0.0210496460     0.0001210742 25103.6901395526
   -0.8857142857     1.0880304035    62.3395501007    63.5533279016     0.0211844190     0.0001210664 25106.0309347554
   -0.8836734694     1.0836525480    62.0887174586    63.3100297942     0.0213159215     0.0001210564 25108.3670333992
   -0.8816326531     1.0793105778    61.8399408902    63.0685961470     0.0214440796     0.0001210439 25110.6983604023
   -0.8795918367     1.0750035447    61.5931660703    62.8289802929     0.0215690271     0.0001210292 25113.0248383817
   -0.8775510204     1.0707305406    61.3483409720    62.5911272553     0.0216907125     0.0001210120 25115.3463878822
   -0.8755102041     1.0664906953    61.1054157324    62.3549879162     0.0218091488     0.0001209921 25117.6629275840
   -0.8734693878     1.0622831742    60.8643425293    62.1205198792     0.0219244307     0.0001209698 25119.9743744908
   -0.8714285714     1.0581071761    60.6250754655    61.8876730392     0.0220364848     0.0001209447 25122.2806441005
   -0.8693877551     1.0539619319    60.3875704629    61.6564058713     0.0221453555     0.0001209168 25124.5816505608
   -0.8673469388     1.0498467020    60.1517851626    61.4266807824     0.0222511262     0.0001208863 25126.8773068101
   -0.8653061224     1.0457607758    59.9176788330    61.1984543277     0.0223537494     0.0001208529 25129.1675247058
   -0.8632653061     1.0417034691    59.6852122830    60.9716867567     0.0224532153     0.0001208165 25131.4522169549
   -0.8612244898     1.0376741234    59.4543477825    60.7463468675     0.0225496380     0.0001207774 25133.7312990502
   -0.8591836735     1.0336721045    59.2250489867    60.5223995167     0.0226430383     0.0001207356 25136.0046792583
   -0.8571428571     1.0296968008    58.9972808661    60.2998026052     0.0227332929     0.0001206905 25138.2722664341
   -0.8551020408     1.0257476230    58.7710096411    60.0785308481     0.0228205501     0.0001206426 25140.5339706980
   -0.8530612245     1.0218240020    58.5462027200    59.8585539224     0.0229048494     0.0001205918 25142.7897033892
   -0.8510204082     1.0179253889    58.3228286418    59.6398417089     0.0229862143     0.0001205383 25145.0393770208
   -0.8489795918     1.0140512533    58.1008570218    59.4223569425     0.0230645247     0.0001204815 25147.2829052370
   -0.8469387755     1.0102010827    57.8802585008    59.2060793978     0.0231399399     0.0001204218 25149.5202027724
   -0.8448979592     1.0063743820    57.6610046973    58.9909827729     0.0232124964     0.0001203593 25151.7511854132
   -0.8428571429     1.0025706719    57.4430681625    58.7770411543     0.0232822208     0.0001202941 25153.9757699595
   -0.8408163265     0.9987894889    57.2264223382    58.5642265408     0.0233490881     0.0001202259 25156.1938741902
   -0.8387755102     0.9950303845    57.0110415164    58.3525129320     0.0234130930     0.0001201547 25158.4054168283
   -0.8367346939     0.9912929239    56.7969008020    58.1418822238     0.0234743542     0.0001200808 25160.6103175090
   -0.8346938776     0.9875766864    56.5839760772    57.9323120465     0.0235329021     0.0001200042 25162.8084967478
   -0.8326530612     0.9838812640    56.3722439680    57.7237808214     0.0235887681     0.0001199249 25164.9998759107
   -0.8306122449     0.9802062611    56.1616818123    57.5162677289     0.0236419842     0.0001198430 25167.1843779586
   -0.8285714286     0.9765512941    55.9522676300    57.3097463237     0.0236924727     0.0001197581 25169.3619294155
   -0.8265306122     0.9729159908    55.7439800947    57.1042034432     0.0237403760     0.0001196707 25171.5324584510
   -0.8244897959     0.9692999900    55.5367985066    56.8996207717     0.0237857356     0.0001195808 25173.6958957968
   -0.8224489796     0.9657029407    55.3307027670    56.6959802524     0.0238285873     0.0001194885 25175.8521746946
   -0.8204081633     0.9621245024    55.1256733545    56.4932644469     0.0238689674     0.0001193937 25178.0012307783
   -0.8183673469     0.9585643440    54.9216913014    56.2914565106     0.0239069129     0.0001192966 25180.1430019617
   -0.8163265306     0.9550221437    54.7187381727    56.0905398880     0.0239424566     0.0001191972 25182.2774283339
   -0.8142857143     0.9514975886    54.5167960447    55.8904945656     0.0239755621     0.0001190954 25184.4044520587
   -0.8122448980     0.9479903746    54.3158474857    55.6913102217     0.0240063535     0.0001189913 25186.5240172801
   -0.8102040816     0.9445002057    54.1158755372    55.4929721666     0.0240348703     0.0001188852 25188.6360700332
   -0.8081632653     0.9410267938    53.9168636960    55.2954661940     0.0240611527     0.0001187770 25190.7405581589
   -0.8061224490     0.9375698586    53.7187958976    55.0987785614     0.0240852411     0.0001186669 25192.8374312235
   -0.8040816327     0.9341291270    53.5216564995    54.9028959715     0.0241071765     0.0001185549 25194.9266428071
   -0.8020408163     0.9307043332    53.3254302661    54.7078055546     0.0241270003     0.0001184410 25197.0081521287
   -0.8000000000     0.9272952180    53.1301023542    54.5134948505     0.0241447539     0.0001183253 25199.0819166130
   -0.7979591837     0.9239015290    52.9356582985    54.3199517920     0.0241604793     0.0001182080 25201.1478966159
   -0.7959183673     0.9205230201    52.7420839987    54.1271646890     0.0241742185     0.0001180890 25203.2060555002
   -0.7938775510     0.9171594514    52.5493657065    53.9351202515     0.0241859794     0.0001179683 25205.2563595039
   -0.7918367347     0.9138105888    52.3574900132    53.7438093333     0.0241958366     0.0001178462 25207.2987776145
   -0.7897959184     0.9104762040    52.1664438387    53.5532216704     0.0242038392     0.0001177226 25209.3332814502
   -0.7877551020     0.9071560743    51.9762144194    53.3633469220     0.0242100293     0.0001175978 25211.3598451461
   -0.7857142857     0.9038499823    51.7867892983    53.1741750512     0.0242144494     0.0001174716 25213.3784452471
   -0.7836734694     0.9005577156    51.5981563144    52.9856963114     0.0242171415     0.0001173443 25215.3890606047
   -0.7816326531     0.8972790671    51.4103035930    52.7979012345     0.0242181475     0.0001172159 25217.3916722800
   -0.7795918367     0.8940138344    51.2232195364    52.6107806185     0.0242175095     0.0001170864 25219.3862634504
   -0.7775510204     0.8907618196    51.0368928148    52.4243255161     0.0242152688     0.0001169559 25221.3728193214
   -0.7755102041     0.8875228296    50.8513123577    52.2385272241     0.0242114669     0.0001168246 25223.3513276043
   -0.7734693878     0.8842966755    50.6664673458    52.0533772720     0.0242061446     0.0001166924 25225.3217782264
   -0.7714285714     0.8810831728    50.4823472028    51.8688674122     0.0241993428     0.0001165595 25227.2841630072
   -0.7693877551     0.8778821410    50.2989415880    51.6849896103     0.0241911016     0.0001164258 25229.2384760427
   -0.7673469388     0.8746934035    50.1162403889    51.5017360351     0.0241814608     0.0001162916 25231.1847136147
   -0.7653061224     0.8715167878    49.9342337142    51.3190990503     0.0241704598     0.0001161568 25233.1228741024
   -0.7632653061     0.8683521249    49.7529118872    51.1370712053     0.0241581375     0.0001160215 25235.0529578998
   -0.7612244898     0.8651992496    49.5722654391    50.9556452269     0.0241445321     0.0001158858 25236.9749673354
   -0.7591836735     0.8620580001    49.3922851027    50.7748140115     0.0241296815     0.0001157498 25238.8889065964
   -0.7571428571     0.8589282182    49.2129618067    50.5945706175     0.0241136227     0.0001156134 25240.7947816560
   -0.7551020408     0.8558097488    49.0342866700    50.4149082577     0.0240963924     0.0001154769 25242.6926002035
   -0.7530612245     0.8527024401    48.8562509955    50.2358202927     0.0240780265     0.0001153401 25244.5823715780
   -0.7510204082     0.8496061434    48.6788462656    50.0573002241     0.0240585602     0.0001152033 25246.4641067048
   -0.7489795918     0.8465207132    48.5020641364    49.8793416881     0.0240380280     0.0001150664 25248.3378180344
   -0.7469387755     0.8434460067    48.3258964330    49.7019384495     0.0240164638     0.0001149296 25250.2035194846
   -0.7448979592     0.8403818842    48.1503351447    49.5250843961     0.0239939008     0.0001147928 25252.0612264112
   -0.7428571429     0.8373282086    47.9753724206    49.3487735329     0.0239703714     0.0001146561 25253.9109562132
   -0.7408163265     0.8342848456    47.8010005647    49.1729999775     0.0239459071     0.0001145197 25255.7527280011
   -0.7387755102     0.8312516635    47.6272120320    48.9977579544     0.0239205389     0.0001143834 25257.5865620298
   -0.7367346939     0.8282285332    47.4539994242    48.8230417910     0.0238942969     0.0001142474 25259.4124796931
   -0.7346938776     0.8252153280    47.2813554856    48.6488459127     0.0238672104     0.0001141118 25261.2305034816
   -0.7326530612     0.8222119238    47.1092730996    48.4751648388     0.0238393081     0.0001139765 25263.0406569414
   -0.7306122449     0.8192181987    46.9377452847    48.3019931787     0.0238106176     0.0001138416 25264.8429646353
   -0.7285714286     0.8162340331    46.7667651908    48.1293256280     0.0237811659     0.0001137072 25266.6374521047
   -0.7265306122     0.8132593097    46.5963260961    47.9571569653     0.0237509792     0.0001135733 25268.4241458339
   -0.7244897959     0.8102939134    46.4264214035    47.7854820482     0.0237200830     0.0001134400 25270.2030732152
   -0.7224489796     0.8073377312    46.2570446372    47.6142958110     0.0236885018     0.0001133072 25271.9742625162
   -0.7204081633     0.8043906520    46.0881894401    47.4435935110     0.0236562637     0.0001131750 25273.7377428473
   -0.7183673469     0.8014525670    45.9198495701    47.2733701868     0.0236233913     0.0001130435 25275.4935441316
   -0.7163265306     0.7985233692    45.7520188977    47.1036209131     0.0235899053     0.0001129128 25277.2416970756
   -0.7142857143     0.7956029535    45.5846914028    46.9343409038     0.0235558275     0.0001127827 25278.9822331406
   -0.7122448980     0.7926912167    45.4178611722    46.7655254352     0.0235211786     0.0001126534 25280.7151845161
   -0.7102040816     0.7897880574    45.2515223968    46.5971698439     0.0234859785     0.0001125248 25282.4405840935
   -0.7081632653     0.7868933760    45.0856693690    46.4292695251     0.0234502466     0.0001123971 25284.1584650954
   -0.7061224490     0.7840070746    44.9202964804    46.2618199302     0.0234140012     0.0001122702 25285.8688592587
   -0.7040816327     0.7811290570    44.7553982192    46.0948165660     0.0233772602     0.0001121442 25287.5718012118
   -0.7020408163     0.7782592286    44.5909691678    45.9282549922     0.0233400407     0.0001120191 25289.2673262872
   -0.7000000000     0.7753974966    44.4270040008    45.7621308206     0.0233023589     0.0001118948 25290.9554698888
   -0.6979591837     0.7725437695    44.2634974825    45.5964397135     0.0232642307     0.0001117715 25292.6362674857
   -0.6959183673     0.7696979575    44.1004444649    45.4311774175     0.0232256715     0.0001116491 25294.3097546068
