shape model output for Uranus's 1-bar isobaric surface. models are described in Mankovich et al. 2026, PSJ.
this model assumes the symmetric wind profile from Sromovsky et al. (2015, Icarus 258) Equation (2).
these solutions vary the polar radius to fit the pair of Voyager 2 occultations reported in Lindal et al. 1987 to a Gaussian standard deviation of 50 m.
the wind fit spectral coefficients are also allowed to vary within their Gaussian uncertainties following S15 Table 5 (Fit 1).
this model has l=0,2,..., 18 wind spectral cofficients:  -1.253169 -3.573933 -0.107826  0.881822  0.333526 -0.175308 -0.262650  0.009879  0.135453  0.050599
mu=sin(phi), phi [radians], and lat_deg [degrees] refer to planetocentric latitude; lat_pg_deg gives planetographic latitude in degrees.
              mu          phi_rad          lat_deg       lat_pg_deg          psi_rad    omega_rad_s-1             r_km 
   -1.0000000000     1.5707963268    90.0000000000    90.0000000000     0.0000000000     0.0001204436 24968.1992424759
   -0.9998144712     1.5515331758    88.8963027451    88.9516595003     0.0009661576     0.0001204572 24968.4315892335
   -0.9996289425     1.5435536961    88.4391122386    88.5173965491     0.0013663190     0.0001204707 24968.6639424668
   -0.9994434137     1.5374305386    88.0882811581    88.1841567851     0.0016733454     0.0001204839 24968.8963060943
   -0.9992578850     1.5322682374    87.7925030866    87.9032073346     0.0019321536     0.0001204970 24969.1286783147
   -0.9990723562     1.5277199472    87.5319052508    87.6556723027     0.0021601426     0.0001205098 24969.3610574422
   -0.9988868275     1.5236077873    87.2962958471    87.4318709904     0.0023662326     0.0001205225 24969.5934421274
   -0.9987012987     1.5198260904    87.0796205724    87.2260530400     0.0025557287     0.0001205350 24969.8258312850
   -0.9985157699     1.5163060092    86.8779347757    87.0344714439     0.0027320803     0.0001205474 24970.0582240249
   -0.9983302412     1.5129997231    86.6884985354    86.8545237360     0.0028976864     0.0001205595 24970.2906196022
   -0.9981447124     1.5098724146    86.5093169626    86.6843150926     0.0030542936     0.0001205715 24970.5230173823
   -0.9979591837     1.5068978001    86.3388841007    86.5224150860     0.0032032200     0.0001205833 24970.7554168169
   -0.9959183673     1.4804147767    84.8215186329    85.0808996696     0.0045270531     0.0001207024 24973.3118054769
   -0.9938775510     1.4600831244    83.6566007642    83.9739894794     0.0055394781     0.0001208032 24975.8677731817
   -0.9918367347     1.4429339318    82.6740244067    83.0401022160     0.0063892631     0.0001208875 24978.4227423603
   -0.9897959184     1.4278174270    81.8079124837    82.2166609740     0.0071340070     0.0001209572 24980.9761611237
   -0.9877551020     1.4141440401    81.0244851196    81.4715797431     0.0078032732     0.0001210140 24983.5275619735
   -0.9857142857     1.4015635991    80.3036789465    80.7858030389     0.0084146528     0.0001210595 24986.0765486589
   -0.9836734694     1.3898479862    79.6324237728    80.1469198491     0.0089796505     0.0001210949 24988.6227469887
   -0.9816326531     1.3788387766    79.0016425268    79.5463141908     0.0095063139     0.0001211218 24991.1658351340
   -0.9795918367     1.3684206412    78.4047273409    78.9777146852     0.0100005157     0.0001211411 24993.7055434057
   -0.9775510204     1.3585065303    77.8366906282    78.4363915468     0.0104667556     0.0001211541 24996.2416410146
   -0.9755102041     1.3490288258    77.2936581616    77.9186718204     0.0109085462     0.0001211616 24998.7739270964
   -0.9734693878     1.3399337634    76.7725494708    77.4216369919     0.0113287144     0.0001211647 25001.3022258015
   -0.9714285714     1.3311777582    76.2708673246    76.9429227821     0.0117295805     0.0001211642 25003.8264012583
   -0.9693877551     1.3227248956    75.7865539757    76.4805822346     0.0121130782     0.0001211606 25006.3463314302
   -0.9673469388     1.3145451659    75.3178899826    76.0329888096     0.0124808290     0.0001211547 25008.8619206724
   -0.9653061224     1.3066131882    74.8634211408    75.5987695289     0.0128342505     0.0001211472 25011.3730995045
   -0.9632653061     1.2989072697    74.4219045316    75.1767498170     0.0131745356     0.0001211383 25013.8798181945
   -0.9612244898     1.2914086960    73.9922679079    74.7659184441     0.0135027491     0.0001211287 25016.3820420798
   -0.9591836735     1.2841011890    73.5735785965    74.3653952327     0.0138198074     0.0001211188 25018.8797481010
   -0.9571428571     1.2769704845    73.1650193268    73.9744099539     0.0141265314     0.0001211088 25021.3729221970
   -0.9551020408     1.2700040004    72.7658691871    73.5922831710     0.0144236450     0.0001210990 25023.8615574632
   -0.9530612245     1.2631905710    72.3754884407    73.2184121250     0.0147117936     0.0001210897 25026.3456589156
   -0.9510204082     1.2565202341    71.9933062850    72.8522592183     0.0149915568     0.0001210811 25028.8252446570
   -0.9489795918     1.2499840563    71.6188108859    72.4933424632     0.0152634554     0.0001210733 25031.3003368328
   -0.9469387755     1.2435739909    71.2515411916    72.1412274489     0.0155279545     0.0001210665 25033.7709602165
   -0.9448979592     1.2372827589    70.8910801509    71.7955212403     0.0157854749     0.0001210608 25036.2371415543
   -0.9428571429     1.2311037506    70.5370490537    71.4558668966     0.0160363966     0.0001210562 25038.6989090468
   -0.9408163265     1.2250309424    70.1891027733    71.1219389604     0.0162810628     0.0001210527 25041.1562919367
   -0.9387755102     1.2190588266    69.8469257429    70.7934397974     0.0165197867     0.0001210504 25043.6093201801
   -0.9367346939     1.2131823517    69.5102285299    70.4700962878     0.0167528528     0.0001210493 25046.0580241841
   -0.9346938776     1.2073968710    69.1787449051    70.1516565137     0.0169805109     0.0001210492 25048.5024345963
   -0.9326530612     1.2016980990    68.8522293213    69.8378880747     0.0172029905     0.0001210502 25050.9425821365
   -0.9306122449     1.1960820730    68.5304547326    69.5285758275     0.0174204994     0.0001210522 25053.3784956673
   -0.9285714286     1.1905451201    68.2132107017    69.2235201238     0.0176332259     0.0001210550 25055.8101932200
   -0.9265306122     1.1850838286    67.9003017483    68.9225360184     0.0178413537     0.0001210587 25058.2376995918
   -0.9244897959     1.1796950225    67.5915459031    68.6254496818     0.0180450251     0.0001210631 25060.6610351436
   -0.9224489796     1.1743757395    67.2867734365    68.3320992569     0.0182443773     0.0001210680 25063.0802139047
   -0.9204081633     1.1691232113    66.9858257369    68.0423337188     0.0184395429     0.0001210734 25065.4952443003
   -0.9183673469     1.1639348463    66.6885543185    67.7560110246     0.0186306341     0.0001210790 25067.9061297848
   -0.9163265306     1.1588082142    66.3948199388    67.4729975011     0.0188177484     0.0001210849 25070.3128693968
   -0.9142857143     1.1537410325    66.1044918138    67.1931678563     0.0190009814     0.0001210907 25072.7154582439
   -0.9122448980     1.1487311539    65.8174469161    66.9164035919     0.0191804123     0.0001210965 25075.1138879305
   -0.9102040816     1.1437765557    65.5335693460    66.6425932843     0.0193561192     0.0001211020 25077.5081469337
   -0.9081632653     1.1388753294    65.2527497676    66.3716307767     0.0195281575     0.0001211071 25079.8982209355
   -0.9061224490     1.1340256726    64.9748848997    66.1034171993     0.0196966043     0.0001211116 25082.2840900356
   -0.9040816327     1.1292258803    64.6998770572    65.8378562912     0.0198614845     0.0001211154 25084.6657234839
   -0.9020408163     1.1244743380    64.4276337361    65.5748601845     0.0200228788     0.0001211183 25087.0430927900
   -0.9000000000     1.1197695150    64.1580672368    65.3143413620     0.0201807905     0.0001211202 25089.4161640327
   -0.8979591837     1.1151099586    63.8910943224    65.0562213509     0.0203353029     0.0001211211 25091.7848977635
   -0.8959183673     1.1104942885    63.6266359071    64.8004197019     0.0204863919     0.0001211205 25094.1492495529
   -0.8938775510     1.1059211919    63.3646167727    64.5468669177     0.0206341576     0.0001211187 25096.5091704797
   -0.8918367347     1.1013894190    63.1049653087    64.2954880933     0.0207785424     0.0001211152 25098.8646075707
   -0.8897959184     1.0968977787    62.8476132749    64.0462210790     0.0209196526     0.0001211101 25101.2155041960
   -0.8877551020     1.0924451350    62.5924955840    63.7989986108     0.0210574503     0.0001211031 25103.5618004250
   -0.8857142857     1.0880304035    62.3395501007    63.5537612685     0.0211919827     0.0001210942 25105.9034333473
   -0.8836734694     1.0836525480    62.0887174586    63.3104521337     0.0213232927     0.0001210834 25108.2403373627
   -0.8816326531     1.0793105778    61.8399408902    63.0690104442     0.0214513105     0.0001210702 25110.5724444430
   -0.8795918367     1.0750035447    61.5931660703    62.8293888781     0.0215761583     0.0001210550 25112.8996843980
   -0.8775510204     1.0707305406    61.3483409720    62.5915325052     0.0216977855     0.0001210374 25115.2219845266
   -0.8755102041     1.0664906953    61.1054157324    62.3553919834     0.0218162012     0.0001210174 25117.5392662870
   -0.8734693878     1.0622831742    60.8643425293    62.1209244921     0.0219314926     0.0001209949 25119.8514486956
   -0.8714285714     1.0581071761    60.6250754655    61.8880798837     0.0220435856     0.0001209698 25122.1584494761
   -0.8693877551     1.0539619319    60.3875704629    61.6568163162     0.0221525192     0.0001209420 25124.4601851978
   -0.8673469388     1.0498467020    60.1517851626    61.4270958585     0.0222583706     0.0001209116 25126.7565714013
   -0.8653061224     1.0457607758    59.9176788330    61.1988748933     0.0223610896     0.0001208785 25129.0475227124
   -0.8632653061     1.0417034691    59.6852122830    60.9721134164     0.0224606619     0.0001208423 25131.3329529459
   -0.8612244898     1.0376741234    59.4543477825    60.7467799177     0.0225571961     0.0001208035 25133.6127751996
   -0.8591836735     1.0336721045    59.2250489867    60.5228390326     0.0226507093     0.0001207619 25135.8869019405
   -0.8571428571     1.0296968008    58.9972808661    60.3002483911     0.0227410734     0.0001207170 25138.1552450830
   -0.8551020408     1.0257476230    58.7710096411    60.0789824799     0.0228284326     0.0001206693 25140.4177160594
   -0.8530612245     1.0218240020    58.5462027200    59.8590107694     0.0229128229     0.0001206188 25142.6742258855
   -0.8510204082     1.0179253889    58.3228286418    59.6403029369     0.0229942643     0.0001205654 25144.9246839324
   -0.8489795918     1.0140512533    58.1008570218    59.4228213441     0.0230726300     0.0001205086 25147.1689979480
   -0.8469387755     1.0102010827    57.8802585008    59.2065456955     0.0231480784     0.0001204489 25149.4070801551
   -0.8448979592     1.0063743820    57.6610046973    58.9914495240     0.0232206427     0.0001203864 25151.6388437708
   -0.8428571429     1.0025706719    57.4430681625    58.7775067494     0.0232903470     0.0001203210 25153.8642027833
   -0.8408163265     0.9987894889    57.2264223382    58.5646891128     0.0233571615     0.0001202526 25156.0830719317
   -0.8387755102     0.9950303845    57.0110415164    58.3529703815     0.0234210770     0.0001201810 25158.2953666863
   -0.8367346939     0.9912929239    56.7969008020    58.1423324809     0.0234822127     0.0001201066 25160.5010032293
   -0.8346938776     0.9875766864    56.5839760772    57.9327529242     0.0235405969     0.0001200293 25162.6998984359
   -0.8326530612     0.9838812640    56.3722439680    57.7242100282     0.0235962591     0.0001199493 25164.8919702841
   -0.8306122449     0.9802062611    56.1616818123    57.5166828817     0.0236492300     0.0001198666 25167.0771439462
   -0.8285714286     0.9765512941    55.9522676300    57.3101446699     0.0236994252     0.0001197807 25169.2553416975
   -0.8265306122     0.9729159908    55.7439800947    57.1045824325     0.0237469906     0.0001196922 25171.4264863550
   -0.8244897959     0.9692999900    55.5367985066    56.8999778225     0.0237919674     0.0001196010 25173.5905037340
   -0.8224489796     0.9657029407    55.3307027670    56.6963127483     0.0238343905     0.0001195073 25175.7473225048
   -0.8204081633     0.9621245024    55.1256733545    56.4935697495     0.0238742959     0.0001194110 25177.8968740588
   -0.8183673469     0.9585643440    54.9216913014    56.2917319730     0.0239117206     0.0001193123 25180.0390923804
   -0.8163265306     0.9550221437    54.7187381727    56.0907828530     0.0239466972     0.0001192111 25182.1739139277
   -0.8142857143     0.9514975886    54.5167960447    55.8907021662     0.0239791854     0.0001191072 25184.3012775177
   -0.8122448980     0.9479903746    54.3158474857    55.6914798757     0.0240093145     0.0001190011 25186.4211243673
   -0.8102040816     0.9445002057    54.1158755372    55.4931013364     0.0240371247     0.0001188928 25188.5333986154
   -0.8081632653     0.9410267938    53.9168636960    55.2955523977     0.0240626572     0.0001187823 25190.6380439771
   -0.8061224490     0.9375698586    53.7187958976    55.0988193841     0.0240859536     0.0001186697 25192.7350069168
   -0.8040816327     0.9341291270    53.5216564995    54.9028890759     0.0241070562     0.0001185551 25194.8242373259
   -0.8020408163     0.9307043332    53.3254302661    54.7077486912     0.0241260078     0.0001184385 25196.9056883684
   -0.8000000000     0.9272952180    53.1301023542    54.5133858674     0.0241428518     0.0001183201 25198.9793163345
   -0.7979591837     0.9239015290    52.9356582985    54.3197886442     0.0241576318     0.0001181998 25201.0450805020
   -0.7959183673     0.9205230201    52.7420839987    54.1269454468     0.0241703920     0.0001180779 25203.1029430045
   -0.7938775510     0.9171594514    52.5493657065    53.9348430157     0.0241811408     0.0001179541 25205.1528687056
   -0.7918367347     0.9138105888    52.3574900132    53.7434724290     0.0241899565     0.0001178288 25207.1948250810
   -0.7897959184     0.9104762040    52.1664438387    53.5528235794     0.0241968912     0.0001177020 25209.2287821045
   -0.7877551020     0.9071560743    51.9762144194    53.3628862692     0.0242019894     0.0001175738 25211.2547121413
   -0.7857142857     0.9038499823    51.7867892983    53.1736506098     0.0242052962     0.0001174443 25213.2725898264
   -0.7836734694     0.9005577156    51.5981563144    52.9851070076     0.0242068562     0.0001173136 25215.2823920706
   -0.7816326531     0.8972790671    51.4103035930    52.7972461512     0.0242067142     0.0001171817 25217.2840985706
   -0.7795918367     0.8940138344    51.2232195364    52.6100589990     0.0242049148     0.0001170487 25219.2776918607
   -0.7775510204     0.8907618196    51.0368928148    52.4235367668     0.0242015025     0.0001169147 25221.2631571961
   -0.7755102041     0.8875228296    50.8513123577    52.2376709160     0.0241965215     0.0001167798 25223.2404824399
   -0.7734693878     0.8842966755    50.6664673458    52.0524531428     0.0241900155     0.0001166441 25225.2096579574
   -0.7714285714     0.8810831728    50.4823472028    51.8678753669     0.0241820283     0.0001165076 25227.1706765132
   -0.7693877551     0.8778821410    50.2989415880    51.6839297213     0.0241726030     0.0001163704 25229.1235331748
   -0.7673469388     0.8746934035    50.1162403889    51.5006085422     0.0241617823     0.0001162326 25231.0682252193
   -0.7653061224     0.8715167878    49.9342337142    51.3179043593     0.0241496085     0.0001160943 25233.0047520453
   -0.7632653061     0.8683521249    49.7529118872    51.1358098868     0.0241361233     0.0001159555 25234.9331150883
   -0.7612244898     0.8651992496    49.5722654391    50.9543180143     0.0241213679     0.0001158163 25236.8533177398
   -0.7591836735     0.8620580001    49.3922851027    50.7734217987     0.0241053828     0.0001156769 25238.7653652355
   -0.7571428571     0.8589282182    49.2129618067    50.5931144557     0.0240882079     0.0001155372 25240.6692649895
   -0.7551020408     0.8558097488    49.0342866700    50.4133893524     0.0240698825     0.0001153973 25242.5650270534
   -0.7530612245     0.8527024401    48.8562509955    50.2342399997     0.0240504452     0.0001152574 25244.4526633916
   -0.7510204082     0.8496061434    48.6788462656    50.0556600455     0.0240299336     0.0001151174 25246.3321877606
   -0.7489795918     0.8465207132    48.5020641364    49.8776432677     0.0240083850     0.0001149774 25248.2036156405
   -0.7469387755     0.8434460067    48.3258964330    49.7001835680     0.0239858354     0.0001148376 25250.0669641691
   -0.7448979592     0.8403818842    48.1503351447    49.5232749658     0.0239623203     0.0001146979 25251.9222520799
   -0.7428571429     0.8373282086    47.9753724206    49.3469115923     0.0239378744     0.0001145585 25253.7694996415
   -0.7408163265     0.8342848456    47.8010005647    49.1710876854     0.0239125313     0.0001144193 25255.6087286010
   -0.7387755102     0.8312516635    47.6272120320    48.9957975841     0.0238863240     0.0001142805 25257.4399621280
   -0.7367346939     0.8282285332    47.4539994242    48.8210357242     0.0238592844     0.0001141421 25259.2632247625
   -0.7346938776     0.8252153280    47.2813554856    48.6467966329     0.0238314438     0.0001140041 25261.0785423643
   -0.7326530612     0.8222119238    47.1092730996    48.4730749253     0.0238028322     0.0001138667 25262.8859420645
   -0.7306122449     0.8192181987    46.9377452847    48.2998652997     0.0237734791     0.0001137297 25264.6854522190
   -0.7285714286     0.8162340331    46.7667651908    48.1271625342     0.0237434128     0.0001135934 25266.4771021901
   -0.7265306122     0.8132593097    46.5963260961    47.9549614827     0.0237126608     0.0001134578 25268.2609220010
   -0.7244897959     0.8102939134    46.4264214035    47.7832570719     0.0236812498     0.0001133228 25270.0369436134
   -0.7224489796     0.8073377312    46.2570446372    47.6120442979     0.0236492054     0.0001131886 25271.8051998277
   -0.7204081633     0.8043906520    46.0881894401    47.4413186245     0.0236165595     0.0001130551 25273.5657241157
   -0.7183673469     0.8014525670    45.9198495701    47.2710750616     0.0235833338     0.0001129225 25275.3185505947
   -0.7163265306     0.7985233692    45.7520188977    47.1013086720     0.0235495491     0.0001127907 25277.0637140034
   -0.7142857143     0.7956029535    45.5846914028    46.9320147035     0.0235152277     0.0001126598 25278.8012496780
   -0.7122448980     0.7926912167    45.4178611722    46.7631884598     0.0234803907     0.0001125299 25280.5311935298
   -0.7102040816     0.7897880574    45.2515223968    46.5948252981     0.0234450585     0.0001124009 25282.2535820235
   -0.7081632653     0.7868933760    45.0856693690    46.4269206277     0.0234092506     0.0001122728 25283.9684521564
   -0.7061224490     0.7840070746    44.9202964804    46.2594699077     0.0233729856     0.0001121458 25285.6758414388
   -0.7040816327     0.7811290570    44.7553982192    46.0924686462     0.0233362813     0.0001120198 25287.3757878741
   -0.7020408163     0.7782592286    44.5909691678    45.9259123983     0.0232991547     0.0001118948 25289.0683299412
   -0.7000000000     0.7753974966    44.4270040008    45.7597967648     0.0232616220     0.0001117709 25290.7535065764
   -0.6979591837     0.7725437695    44.2634974825    45.5941173916     0.0232236985     0.0001116481 25292.4313571565
   -0.6959183673     0.7696979575    44.1004444649    45.4288700130     0.0231853997     0.0001115265 25294.1019214829
