shape model output for Uranus's 1-bar isobaric surface. models are described in Mankovich et al. 2026, PSJ.
this model assumes the symmetric wind profile from Sromovsky et al. (2015, Icarus 258) Equation (2).
these solutions vary the polar radius to fit the pair of Voyager 2 occultations reported in Lindal et al. 1987 to a Gaussian standard deviation of 50 m.
the wind fit spectral coefficients are also allowed to vary within their Gaussian uncertainties following S15 Table 5 (Fit 1).
this model has l=0,2,..., 18 wind spectral cofficients:  -1.230445 -3.602343 -0.082280  0.808375  0.375838 -0.173916 -0.199339  0.044613  0.150432  0.067097
mu=sin(phi), phi [radians], and lat_deg [degrees] refer to planetocentric latitude; lat_pg_deg gives planetographic latitude in degrees.
              mu          phi_rad          lat_deg       lat_pg_deg          psi_rad    omega_rad_s-1             r_km 
   -1.0000000000     1.5707963268    90.0000000000    90.0000000000     0.0000000000     0.0001198636 24968.6773621007
   -0.9998144712     1.5515331758    88.8963027451    88.9512517640     0.0009590413     0.0001198884 24968.9079846578
   -0.9996289425     1.5435536961    88.4391122386    88.5168312096     0.0013564519     0.0001199129 24969.1386475473
   -0.9994434137     1.5374305386    88.0882811581    88.1834780487     0.0016614992     0.0001199371 24969.3693546523
   -0.9992578850     1.5322682374    87.7925030866    87.9024391998     0.0019187471     0.0001199610 24969.6001033396
   -0.9990723562     1.5277199472    87.5319052508    87.6548308037     0.0021454556     0.0001199846 24969.8308912948
   -0.9988868275     1.5236077873    87.2962958471    87.4309678606     0.0023504700     0.0001200078 24970.0617166966
   -0.9987012987     1.5198260904    87.0796205724    87.2250976980     0.0025390548     0.0001200309 24970.2925780931
   -0.9985157699     1.5163060092    86.8779347757    87.0334714231     0.0027146266     0.0001200537 24970.5234742996
   -0.9983302412     1.5129997231    86.6884985354    86.8534853903     0.0028795638     0.0001200762 24970.7544043287
   -0.9981447124     1.5098724146    86.5093169626    86.6832438900     0.0030355975     0.0001200984 24970.9853673421
   -0.9979591837     1.5068978001    86.3388841007    86.5213158034     0.0031840339     0.0001201203 24971.2163626171
   -0.9959183673     1.4804147767    84.8215186329    85.0797001620     0.0045061178     0.0001203445 24973.7592561331
   -0.9938775510     1.4600831244    83.6566007642    83.9729093467     0.0055206262     0.0001205391 24976.3050512579
   -0.9918367347     1.4429339318    82.6740244067    83.0392547071     0.0063744713     0.0001207071 24978.8527880085
   -0.9897959184     1.4278174270    81.8079124837    82.2161090411     0.0071243739     0.0001208510 24981.4015859133
   -0.9877551020     1.4141440401    81.0244851196    81.4713565775     0.0077993783     0.0001209732 24983.9506990255
   -0.9857142857     1.4015635991    80.3036789465    80.7859220883     0.0084167306     0.0001210759 24986.4994231363
   -0.9836734694     1.3898479862    79.6324237728    80.1473808408     0.0089876963     0.0001211611 24989.0471337034
   -0.9816326531     1.3788387766    79.0016425268    79.5471075894     0.0095201613     0.0001212309 24991.5932760528
   -0.9795918367     1.3684206412    78.4047273409    78.9788233576     0.0100198657     0.0001212869 24994.1373575600
   -0.9775510204     1.3585065303    77.8366906282    78.4377939949     0.0104912329     0.0001213307 24996.6789387095
   -0.9755102041     1.3490288258    77.2936581616    77.9203429380     0.0109377127     0.0001213639 24999.2176369949
   -0.9734693878     1.3399337634    76.7725494708    77.4235493791     0.0113620918     0.0001213878 25001.7531100961
   -0.9714285714     1.3311777582    76.2708673246    76.9450478122     0.0117666693     0.0001214036 25004.2850482907
   -0.9693877551     1.3227248956    75.7865539757    76.4828907475     0.0121533694     0.0001214125 25006.8131976874
   -0.9673469388     1.3145451659    75.3178899826    76.0354505076     0.0125237937     0.0001214154 25009.3373473792
   -0.9653061224     1.3066131882    74.8634211408    75.6013560434     0.0128793937     0.0001214134 25011.8573198546
   -0.9632653061     1.2989072697    74.4219045316    75.1794319518     0.0132213477     0.0001214072 25014.3729639603
   -0.9612244898     1.2914086960    73.9922679079    74.7686694218     0.0135507627     0.0001213977 25016.8841496374
   -0.9591836735     1.2841011890    73.5735785965    74.3681880009     0.0138685504     0.0001213853 25019.3907639153
   -0.9571428571     1.2769704845    73.1650193268    73.9772195950     0.0141755689     0.0001213709 25021.8927174397
   -0.9551020408     1.2700040004    72.7658691871    73.5950862756     0.0144725684     0.0001213550 25024.3899517528
   -0.9530612245     1.2631905710    72.3754884407    73.2211866300     0.0147602179     0.0001213379 25026.8824167558
   -0.9510204082     1.2565202341    71.9933062850    72.8549843714     0.0150391197     0.0001213201 25029.3700781714
   -0.9489795918     1.2499840563    71.6188108859    72.4959990262     0.0153098212     0.0001213020 25031.8529147977
   -0.9469387755     1.2435739909    71.2515411916    72.1437980266     0.0155728195     0.0001212837 25034.3309161019
   -0.9448979592     1.2372827589    70.8910801509    71.7979899678     0.0158285623     0.0001212657 25036.8040802852
   -0.9428571429     1.2311037506    70.5370490537    71.4582194298     0.0160774560     0.0001212481 25039.2724127142
   -0.9408163265     1.2250309424    70.1891027733    71.1241624477     0.0163198700     0.0001212311 25041.7359246434
   -0.9387755102     1.2190588266    69.8469257429    70.7955227618     0.0165561413     0.0001212148 25044.1946321676
   -0.9367346939     1.2131823517    69.5102285299    70.4720285972     0.0167865779     0.0001211993 25046.6485551091
   -0.9346938776     1.2073968710    69.1787449051    70.1534295373     0.0170114560     0.0001211846 25049.0977122716
   -0.9326530612     1.2016980990    68.8522293213    69.8394944713     0.0172310275     0.0001211709 25051.5421308037
   -0.9306122449     1.1960820730    68.5304547326    69.5300094648     0.0174455211     0.0001211581 25053.9818385328
   -0.9285714286     1.1905451201    68.2132107017    69.2247759955     0.0176551450     0.0001211462 25056.4168605850
   -0.9265306122     1.1850838286    67.9003017483    68.9236101193     0.0178601003     0.0001211352 25058.8472196500
   -0.9244897959     1.1796950225    67.5915459031    68.6263391533     0.0180605493     0.0001211250 25061.2729362133
   -0.9224489796     1.1743757395    67.2867734365    68.3328021456     0.0182566450     0.0001211156 25063.6940287599
   -0.9204081633     1.1691232113    66.9858257369    68.0428489619     0.0184485355     0.0001211068 25066.1105139552
   -0.9183673469     1.1639348463    66.6885543185    67.7563384654     0.0186363491     0.0001210987 25068.5224068037
   -0.9163265306     1.1588082142    66.3948199388    67.4731375724     0.0188201931     0.0001210911 25070.9297207909
   -0.9142857143     1.1537410325    66.1044918138    67.1931218980     0.0190001793     0.0001210839 25073.3324680095
   -0.9122448980     1.1487311539    65.8174469161    66.9161734977     0.0191763964     0.0001210769 25075.7306523035
   -0.9102040816     1.1437765557    65.5335693460    66.6421813614     0.0193489298     0.0001210701 25078.1242719539
   -0.9081632653     1.1388753294    65.2527497676    66.3710403336     0.0195178524     0.0001210633 25080.5133280653
   -0.9061224490     1.1340256726    64.9748848997    66.1026513304     0.0196832374     0.0001210563 25082.8978152579
   -0.9040816327     1.1292258803    64.6998770572    65.8369193759     0.0198451322     0.0001210491 25085.2777222689
   -0.9020408163     1.1244743380    64.4276337361    65.5737560657     0.0200036083     0.0001210415 25087.6530325340
   -0.9000000000     1.1197695150    64.1580672368    65.3130751062     0.0201586902     0.0001210334 25090.0237247077
   -0.8979591837     1.1151099586    63.8910943224    65.0547973904     0.0203104501     0.0001210246 25092.3897731275
   -0.8959183673     1.1104942885    63.6266359071    64.7988437392     0.0204588862     0.0001210149 25094.7511482305
   -0.8938775510     1.1059211919    63.3646167727    64.5451437324     0.0206040824     0.0001210044 25097.1078169272
   -0.8918367347     1.1013894190    63.1049653087    64.2936238744     0.0207460057     0.0001209927 25099.4597429370
   -0.8897959184     1.0968977787    62.8476132749    64.0442210270     0.0208847451     0.0001209798 25101.8068870904
   -0.8877551020     1.0924451350    62.5924955840    63.7968687929     0.0210202779     0.0001209656 25104.1492073969
   -0.8857142857     1.0880304035    62.3395501007    63.5515075034     0.0211526471     0.0001209498 25106.4866543241
   -0.8836734694     1.0836525480    62.0887174586    63.3080800464     0.0212818919     0.0001209326 25108.8191753316
   -0.8816326531     1.0793105778    61.8399408902    63.0665265442     0.0214079582     0.0001209135 25111.1467156304
   -0.8795918367     1.0750035447    61.5931660703    62.8267986620     0.0215309505     0.0001208927 25113.4692170937
   -0.8775510204     1.0707305406    61.3483409720    62.5888420517     0.0216508282     0.0001208700 25115.7866185509
   -0.8755102041     1.0664906953    61.1054157324    62.3526073639     0.0217676004     0.0001208452 25118.0988560565
   -0.8734693878     1.0622831742    60.8643425293    62.1180511615     0.0218813435     0.0001208184 25120.4058631340
   -0.8714285714     1.0581071761    60.6250754655    61.8851238813     0.0219919936     0.0001207893 25122.7075709985
   -0.8693877551     1.0539619319    60.3875704629    61.6537834042     0.0220995849     0.0001207578 25125.0039087605
   -0.8673469388     1.0498467020    60.1517851626    61.4239912998     0.0222041859     0.0001207242 25127.2948036110
   -0.8653061224     1.0457607758    59.9176788330    61.1957042583     0.0223057516     0.0001206880 25129.5801809914
   -0.8632653061     1.0417034691    59.6852122830    60.9688823100     0.0224042685     0.0001206493 25131.8599647487
   -0.8612244898     1.0376741234    59.4543477825    60.7434932966     0.0224998338     0.0001206081 25134.1340772778
   -0.8591836735     1.0336721045    59.2250489867    60.5195017487     0.0225924627     0.0001205645 25136.4024396513
   -0.8571428571     1.0296968008    58.9972808661    60.2968658654     0.0226820371     0.0001205179 25138.6649717392
   -0.8551020408     1.0257476230    58.7710096411    60.0755593648     0.0227686879     0.0001204687 25140.9215923183
   -0.8530612245     1.0218240020    58.5462027200    59.8555515107     0.0228524475     0.0001204169 25143.1722205332
   -0.8510204082     1.0179253889    58.3228286418    59.6368118517     0.0229333333     0.0001203625 25145.4167800484
   -0.8489795918     1.0140512533    58.1008570218    59.4193031782     0.0230112264     0.0001203050 25147.6551858777
   -0.8469387755     1.0102010827    57.8802585008    59.2030044897     0.0230862727     0.0001202449 25149.8873531634
   -0.8448979592     1.0063743820    57.6610046973    58.9878891390     0.0231585023     0.0001201820 25152.1131987129
   -0.8428571429     1.0025706719    57.4430681625    58.7739309058     0.0232279368     0.0001201165 25154.3326409236
   -0.8408163265     0.9987894889    57.2264223382    58.5611015597     0.0232945469     0.0001200481 25156.5455997133
   -0.8387755102     0.9950303845    57.0110415164    58.3493748105     0.0233583225     0.0001199768 25158.7519964534
   -0.8367346939     0.9912929239    56.7969008020    58.1387321468     0.0234193750     0.0001199028 25160.9517539065
   -0.8346938776     0.9875766864    56.5839760772    57.9291509423     0.0234777304     0.0001198261 25163.1447961666
   -0.8326530612     0.9838812640    56.3722439680    57.7206093751     0.0235334159     0.0001197468 25165.3310486029
   -0.8306122449     0.9802062611    56.1616818123    57.5130863966     0.0235864595     0.0001196649 25167.5104378064
   -0.8285714286     0.9765512941    55.9522676300    57.3065553264     0.0236367793     0.0001195800 25169.6828915390
   -0.8265306122     0.9729159908    55.7439800947    57.1010027847     0.0236845140     0.0001194925 25171.8483386856
   -0.8244897959     0.9692999900    55.5367985066    56.8964102781     0.0237297020     0.0001194026 25174.0067092084
   -0.8224489796     0.9657029407    55.3307027670    56.6927595880     0.0237723761     0.0001193101 25176.1579341029
   -0.8204081633     0.9621245024    55.1256733545    56.4900331302     0.0238125703     0.0001192153 25178.3019453571
   -0.8183673469     0.9585643440    54.9216913014    56.2882139307     0.0238503192     0.0001191180 25180.4386776892
   -0.8163265306     0.9550221437    54.7187381727    56.0872853155     0.0238856536     0.0001190184 25182.5680748392
   -0.8142857143     0.9514975886    54.5167960447    55.8872270765     0.0239185337     0.0001189162 25184.6900743836
   -0.8122448980     0.9479903746    54.3158474857    55.6880289060     0.0239490837     0.0001188118 25186.8046159177
   -0.8102040816     0.9445002057    54.1158755372    55.4896760534     0.0239773423     0.0001187052 25188.9116425066
   -0.8081632653     0.9410267938    53.9168636960    55.2921542668     0.0240033486     0.0001185965 25191.0111005253
   -0.8061224490     0.9375698586    53.7187958976    55.0954497728     0.0240271428     0.0001184858 25193.1029395080
   -0.8040816327     0.9341291270    53.5216564995    54.8995492580     0.0240487654     0.0001183732 25195.1871120044
   -0.8020408163     0.9307043332    53.3254302661    54.7044398500     0.0240682577     0.0001182586 25197.2635734438
   -0.8000000000     0.9272952180    53.1301023542    54.5101090996     0.0240856614     0.0001181421 25199.3322820065
   -0.7979591837     0.9239015290    52.9356582985    54.3165449636     0.0241010189     0.0001180239 25201.3931985012
   -0.7959183673     0.9205230201    52.7420839987    54.1237357878     0.0241143728     0.0001179040 25203.4462862494
   -0.7938775510     0.9171594514    52.5493657065    53.9316682722     0.0241257310     0.0001177824 25205.4915109748
   -0.7918367347     0.9138105888    52.3574900132    53.7403333857     0.0241351699     0.0001176592 25207.5288406989
   -0.7897959184     0.9104762040    52.1664438387    53.5497209450     0.0241427400     0.0001175346 25209.5582456413
   -0.7877551020     0.9071560743    51.9762144194    53.3598206878     0.0241484849     0.0001174086 25211.5796981251
   -0.7857142857     0.9038499823    51.7867892983    53.1706226635     0.0241524485     0.0001172813 25213.5931724869
   -0.7836734694     0.9005577156    51.5981563144    52.9821172198     0.0241546745     0.0001171527 25215.5986449913
   -0.7816326531     0.8972790671    51.4103035930    52.7942949892     0.0241552067     0.0001170230 25217.5960937491
   -0.7795918367     0.8940138344    51.2232195364    52.6071468768     0.0241540887     0.0001168922 25219.5854987000
   -0.7775510204     0.8907618196    51.0368928148    52.4206640482     0.0241513641     0.0001167605 25221.5668471712
   -0.7755102041     0.8875228296    50.8513123577    52.2348379171     0.0241470763     0.0001166278 25223.5401286002
   -0.7734693878     0.8842966755    50.6664673458    52.0496601340     0.0241412683     0.0001164943 25225.5053321396
   -0.7714285714     0.8810831728    50.4823472028    51.8651225754     0.0241339831     0.0001163600 25227.4624495703
   -0.7693877551     0.8778821410    50.2989415880    51.6812173330     0.0241252629     0.0001162251 25229.4114751955
   -0.7673469388     0.8746934035    50.1162403889    51.4979367040     0.0241151500     0.0001160895 25231.3524057397
   -0.7653061224     0.8715167878    49.9342337142    51.3152731809     0.0241036858     0.0001159534 25233.2852402526
   -0.7632653061     0.8683521249    49.7529118872    51.1332194425     0.0240909115     0.0001158168 25235.2099800163
   -0.7612244898     0.8651992496    49.5722654391    50.9517683448     0.0240768677     0.0001156799 25237.1266284584
   -0.7591836735     0.8620580001    49.3922851027    50.7709129125     0.0240615944     0.0001155426 25239.0351910671
   -0.7571428571     0.8589282182    49.2129618067    50.5906463306     0.0240451310     0.0001154051 25240.9356753113
   -0.7551020408     0.8558097488    49.0342866700    50.4109619369     0.0240275161     0.0001152674 25242.8280905639
   -0.7530612245     0.8527024401    48.8562509955    50.2318532142     0.0240087879     0.0001151297 25244.7124480282
   -0.7510204082     0.8496061434    48.6788462656    50.0533137833     0.0239889836     0.0001149918 25246.5887606681
   -0.7489795918     0.8465207132    48.5020641364    49.8753373961     0.0239681399     0.0001148541 25248.4570431402
   -0.7469387755     0.8434460067    48.3258964330    49.6979179295     0.0239462925     0.0001147163 25250.3173117304
   -0.7448979592     0.8403818842    48.1503351447    49.5210493789     0.0239234765     0.0001145788 25252.1695842918
   -0.7428571429     0.8373282086    47.9753724206    49.3447258522     0.0238997260     0.0001144415 25254.0138801858
   -0.7408163265     0.8342848456    47.8010005647    49.1689415651     0.0238750744     0.0001143044 25255.8502202259
   -0.7387755102     0.8312516635    47.6272120320    48.9936908349     0.0238495543     0.0001141676 25257.6786266237
   -0.7367346939     0.8282285332    47.4539994242    48.8189680762     0.0238231972     0.0001140313 25259.4991226809
   -0.7346938776     0.8252153280    47.2813554856    48.6447677962     0.0237960339     0.0001138953 25261.3117327480
   -0.7326530612     0.8222119238    47.1092730996    48.4710845902     0.0237680943     0.0001137599 25263.1164839985
   -0.7306122449     0.8192181987    46.9377452847    48.2979131374     0.0237394074     0.0001136250 25264.9134046641
   -0.7285714286     0.8162340331    46.7667651908    48.1252481974     0.0237100013     0.0001134907 25266.7025238305
   -0.7265306122     0.8132593097    46.5963260961    47.9530846062     0.0236799032     0.0001133569 25268.4838714050
   -0.7244897959     0.8102939134    46.4264214035    47.7814172727     0.0236491393     0.0001132239 25270.2574780859
   -0.7224489796     0.8073377312    46.2570446372    47.6102411759     0.0236177350     0.0001130916 25272.0233753322
   -0.7204081633     0.8043906520    46.0881894401    47.4395517447     0.0235857216     0.0001129600 25273.7815953357
   -0.7183673469     0.8014525670    45.9198495701    47.2693439807     0.0235531207     0.0001128292 25275.5321709930
   -0.7163265306     0.7985233692    45.7520188977    47.0996129373     0.0235199530     0.0001126993 25277.2751358799
   -0.7142857143     0.7956029535    45.5846914028    46.9303538469     0.0234862403     0.0001125702 25279.0105242256
   -0.7122448980     0.7926912167    45.4178611722    46.7615619980     0.0234520036     0.0001124421 25280.7383708891
   -0.7102040816     0.7897880574    45.2515223968    46.5932327335     0.0234172630     0.0001123148 25282.4587113358
   -0.7081632653     0.7868933760    45.0856693690    46.4253614485     0.0233820377     0.0001121885 25284.1715816150
   -0.7061224490     0.7840070746    44.9202964804    46.2579435887     0.0233463463     0.0001120632 25285.8770183388
   -0.7040816327     0.7811290570    44.7553982192    46.0909746492     0.0233102061     0.0001119388 25287.5750586617
   -0.7020408163     0.7782592286    44.5909691678    45.9244501724     0.0232736340     0.0001118155 25289.2657402604
   -0.7000000000     0.7753974966    44.4270040008    45.7583657474     0.0232366460     0.0001116932 25290.9491013154
   -0.6979591837     0.7725437695    44.2634974825    45.5927170084     0.0231992572     0.0001115720 25292.6251804050
   -0.6959183673     0.7696979575    44.1004444649    45.4274996773     0.0231614828     0.0001114519 25294.2940141210
