shape model output for Uranus's 1-bar isobaric surface. models are described in Mankovich et al. 2026, PSJ.
this model assumes the symmetric wind profile from Sromovsky et al. (2015, Icarus 258) Equation (2).
these solutions vary the polar radius to fit the pair of Voyager 2 occultations reported in Lindal et al. 1987 to a Gaussian standard deviation of 50 m.
the wind fit spectral coefficients are also allowed to vary within their Gaussian uncertainties following S15 Table 5 (Fit 1).
this model has l=0,2,..., 18 wind spectral cofficients:  -1.232270 -3.581901 -0.122169  0.826792  0.336815 -0.203667 -0.202142 -0.062173  0.111307  0.068167
mu=sin(phi), phi [radians], and lat_deg [degrees] refer to planetocentric latitude; lat_pg_deg gives planetographic latitude in degrees.
              mu          phi_rad          lat_deg       lat_pg_deg          psi_rad    omega_rad_s-1             r_km 
   -1.0000000000     1.5707963268    90.0000000000    90.0000000000     0.0000000000     0.0001209266 24968.9114878834
   -0.9998144712     1.5515331758    88.8963027451    88.9520085355     0.0009722495     0.0001209355 24969.1453136968
   -0.9996289425     1.5435536961    88.4391122386    88.5178852221     0.0013748479     0.0001209441 24969.3791311382
   -0.9994434137     1.5374305386    88.0882811581    88.1847492916     0.0016836866     0.0001209526 24969.6129442536
   -0.9992578850     1.5322682374    87.7925030866    87.9038846370     0.0019439748     0.0001209609 24969.8467515383
   -0.9990723562     1.5277199472    87.5319052508    87.6564219147     0.0021732258     0.0001209691 24970.0805515210
   -0.9988868275     1.5236077873    87.2962958471    87.4326838800     0.0023804202     0.0001209771 24970.3143430102
   -0.9987012987     1.5198260904    87.0796205724    87.2269221158     0.0025708969     0.0001209850 24970.5481250429
   -0.9985157699     1.5163060092    86.8779347757    87.0353910495     0.0027481304     0.0001209928 24970.7818968259
   -0.9983302412     1.5129997231    86.6884985354    86.8554891509     0.0029145361     0.0001210003 24971.0156576943
   -0.9981447124     1.5098724146    86.5093169626    86.6853222898     0.0030718725     0.0001210078 24971.2494070801
   -0.9979591837     1.5068978001    86.3388841007    86.5234605712     0.0032214671     0.0001210151 24971.4831444921
   -0.9959183673     1.4804147767    84.8215186329    85.0822158128     0.0045500241     0.0001210867 24974.0533680334
   -0.9938775510     1.4600831244    83.6566007642    83.9754173204     0.0055643986     0.0001211434 24976.6216369882
   -0.9918367347     1.4429339318    82.6740244067    83.0415547761     0.0064146150     0.0001211871 24979.1874858191
   -0.9897959184     1.4278174270    81.8079124837    82.2180832248     0.0071588299     0.0001212194 24981.7504846865
   -0.9877551020     1.4141440401    81.0244851196    81.4729350661     0.0078269281     0.0001212418 24984.3102664453
   -0.9857142857     1.4015635991    80.3036789465    80.7870668703     0.0084367108     0.0001212558 24986.8665267474
   -0.9836734694     1.3898479862    79.6324237728    80.1480761691     0.0089998321     0.0001212625 24989.4190022047
   -0.9816326531     1.3788387766    79.0016425268    79.5473531479     0.0095244471     0.0001212633 24991.9674517320
   -0.9795918367     1.3684206412    78.4047273409    78.9786313283     0.0100165142     0.0001212590 24994.5116873995
   -0.9775510204     1.3585065303    77.8366906282    78.4371844102     0.0104805936     0.0001212506 24997.0515610855
   -0.9755102041     1.3490288258    77.2936581616    77.9193422921     0.0109202482     0.0001212390 24999.5869524644
   -0.9734693878     1.3399337634    76.7725494708    77.4221886295     0.0113383423     0.0001212250 25002.1177613397
   -0.9714285714     1.3311777582    76.2708673246    76.9433607395     0.0117372243     0.0001212092 25004.6439059969
   -0.9693877551     1.3227248956    75.7865539757    76.4809128446     0.0121188485     0.0001211923 25007.1653372276
   -0.9673469388     1.3145451659    75.3178899826    76.0332196918     0.0124848587     0.0001211746 25009.6820149262
   -0.9653061224     1.3066131882    74.8634211408    75.5989082996     0.0128366725     0.0001211567 25012.1939190386
   -0.9632653061     1.2989072697    74.4219045316    75.1768050574     0.0131754997     0.0001211390 25014.7010465849
   -0.9612244898     1.2914086960    73.9922679079    74.7658983126     0.0135023978     0.0001211219 25017.2034071488
   -0.9591836735     1.2841011890    73.5735785965    74.3653084893     0.0138182934     0.0001211055 25019.7010195842
   -0.9571428571     1.2769704845    73.1650193268    73.9742648823     0.0141239994     0.0001210902 25022.1939095812
   -0.9551020408     1.2700040004    72.7658691871    73.5920877661     0.0144202345     0.0001210760 25024.6821078476
   -0.9530612245     1.2631905710    72.3754884407    73.2181741024     0.0147076394     0.0001210632 25027.1656486503
   -0.9510204082     1.2565202341    71.9933062850    72.8519859764     0.0149867878     0.0001210519 25029.6445694481
   -0.9489795918     1.2499840563    71.6188108859    72.4930409415     0.0152581929     0.0001210421 25032.1189180656
   -0.9469387755     1.2435739909    71.2515411916    72.1409039267     0.0155223080     0.0001210339 25034.5887429226
   -0.9448979592     1.2372827589    70.8910801509    71.7951814333     0.0157795441     0.0001210273 25037.0540902306
   -0.9428571429     1.2311037506    70.5370490537    71.4555159212     0.0160302709     0.0001210222 25039.5150041110
   -0.9408163265     1.2250309424    70.1891027733    71.1215813093     0.0162748207     0.0001210186 25041.9715267107
   -0.9387755102     1.2190588266    69.8469257429    70.7930793605     0.0165134959     0.0001210165 25044.4236983110
   -0.9367346939     1.2131823517    69.5102285299    70.4697363314     0.0167465703     0.0001210158 25046.8715574314
   -0.9346938776     1.2073968710    69.1787449051    70.1512995894     0.0169742814     0.0001210164 25049.3151409280
   -0.9326530612     1.2016980990    68.8522293213    69.8375360966     0.0171968474     0.0001210182 25051.7544840844
   -0.9306122449     1.1960820730    68.5304547326    69.5282300940     0.0174144653     0.0001210210 25054.1896191906
   -0.9285714286     1.1905451201    68.2132107017    69.2231813460     0.0176273131     0.0001210247 25056.6205645037
   -0.9265306122     1.1850838286    67.9003017483    68.9222042985     0.0178355641     0.0001210292 25059.0473454803
   -0.9244897959     1.1796950225    67.5915459031    68.6251245337     0.0180393502     0.0001210343 25061.4699825749
   -0.9224489796     1.1743757395    67.2867734365    68.3317797035     0.0182388001     0.0001210399 25063.8884880743
   -0.9204081633     1.1691232113    66.9858257369    68.0420182191     0.0184340363     0.0001210458 25066.3028670561
   -0.9183673469     1.1639348463    66.6885543185    67.7556974772     0.0186251617     0.0001210519 25068.7131182226
   -0.9163265306     1.1588082142    66.3948199388    67.4726835421     0.0188122688     0.0001210579 25071.1192346286
   -0.9142857143     1.1537410325    66.1044918138    67.1928504688     0.0189954420     0.0001210638 25073.5212043190
   -0.9122448980     1.1487311539    65.8174469161    66.9160794679     0.0191747553     0.0001210693 25075.9190108885
   -0.9102040816     1.1437765557    65.5335693460    66.6422589112     0.0193502833     0.0001210743 25078.3126339742
   -0.9081632653     1.1388753294    65.2527497676    66.3712818805     0.0195220682     0.0001210786 25080.7020496893
   -0.9061224490     1.1340256726    64.9748848997    66.1030498512     0.0196901929     0.0001210821 25083.0872310076
   -0.9040816327     1.1292258803    64.6998770572    65.8374655328     0.0198546644     0.0001210845 25085.4681465627
   -0.9020408163     1.1244743380    64.4276337361    65.5744416574     0.0200155741     0.0001210858 25087.8447534004
   -0.9000000000     1.1197695150    64.1580672368    65.3138897349     0.0201729082     0.0001210858 25090.2170064066
   -0.8979591837     1.1151099586    63.8910943224    65.0557319532     0.0203267613     0.0001210844 25092.5848561695
   -0.8959183673     1.1104942885    63.6266359071    64.7998868612     0.0204770921     0.0001210813 25094.9482487409
   -0.8938775510     1.1059211919    63.3646167727    64.5462858558     0.0206240162     0.0001210766 25097.3071260955
   -0.8918367347     1.1013894190    63.1049653087    64.2948529312     0.0207674567     0.0001210699 25099.6614265428
   -0.8897959184     1.0968977787    62.8476132749    64.0455268768     0.0209075365     0.0001210614 25102.0110850974
   -0.8877551020     1.0924451350    62.5924955840    63.7982398090     0.0210442067     0.0001210506 25104.3560338109
   -0.8857142857     1.0880304035    62.3395501007    63.5529326247     0.0211775201     0.0001210377 25106.6962020721
   -0.8836734694     1.0836525480    62.0887174586    63.3095486760     0.0213075244     0.0001210226 25109.0315168772
   -0.8816326531     1.0793105778    61.8399408902    63.0680266171     0.0214341394     0.0001210049 25111.3619030731
   -0.8795918367     1.0750035447    61.5931660703    62.8283200582     0.0215575039     0.0001209848 25113.6872820273
   -0.8775510204     1.0707305406    61.3483409720    62.5903737530     0.0216775614     0.0001209621 25116.0075683549
   -0.8755102041     1.0664906953    61.1054157324    62.3541385187     0.0217943241     0.0001209367 25118.3226776146
   -0.8734693878     1.0622831742    60.8643425293    62.1195721437     0.0219078896     0.0001209088 25120.6325243250
   -0.8714285714     1.0581071761    60.6250754655    61.8866242308     0.0220181796     0.0001208779 25122.9370218432
   -0.8693877551     1.0539619319    60.3875704629    61.6552533182     0.0221252397     0.0001208442 25125.2360824958
   -0.8673469388     1.0498467020    60.1517851626    61.4254219912     0.0222291561     0.0001208077 25127.5296176985
   -0.8653061224     1.0457607758    59.9176788330    61.1970866348     0.0223298786     0.0001207683 25129.8175380631
   -0.8632653061     1.0417034691    59.6852122830    60.9702074528     0.0224273966     0.0001207258 25132.0997534963
   -0.8612244898     1.0376741234    59.4543477825    60.7447535308     0.0225218290     0.0001206804 25134.3761732882
   -0.8591836735     1.0336721045    59.2250489867    60.5206897740     0.0226131977     0.0001206322 25136.6467061934
   -0.8571428571     1.0296968008    58.9972808661    60.2979738105     0.0227013744     0.0001205807 25138.9112605045
   -0.8551020408     1.0257476230    58.7710096411    60.0765807474     0.0227865144     0.0001205262 25141.1697454882
   -0.8530612245     1.0218240020    58.5462027200    59.8564803924     0.0228686595     0.0001204689 25143.4220721426
   -0.8510204082     1.0179253889    58.3228286418    59.6376427299     0.0229478349     0.0001204087 25145.6681507845
   -0.8489795918     1.0140512533    58.1008570218    59.4200303470     0.0230239179     0.0001203451 25147.9078931121
   -0.8469387755     1.0102010827    57.8802585008    59.2036234272     0.0230970752     0.0001202786 25150.1412121874
   -0.8448979592     1.0063743820    57.6610046973    58.9883958329     0.0231673458     0.0001202092 25152.3680223812
   -0.8428571429     1.0025706719    57.4430681625    58.7743218062     0.0232347593     0.0001201371 25154.5882393208
   -0.8408163265     0.9987894889    57.2264223382    58.5613734495     0.0232992922     0.0001200619 25156.8017798401
   -0.8387755102     0.9950303845    57.0110415164    58.3495249280     0.0233609425     0.0001199837 25159.0085619327
   -0.8367346939     0.9912929239    56.7969008020    58.1387584469     0.0234198340     0.0001199027 25161.2085047067
   -0.8346938776     0.9875766864    56.5839760772    57.9290518359     0.0234760007     0.0001198191 25163.4015283418
   -0.8326530612     0.9838812640    56.3722439680    57.7203837243     0.0235294775     0.0001197327 25165.5875540491
   -0.8306122449     0.9802062611    56.1616818123    57.5127335088     0.0235803005     0.0001196438 25167.7665085399
   -0.8285714286     0.9765512941    55.9522676300    57.3060749650     0.0236283954     0.0001195519 25169.9383222504
   -0.8265306122     0.9729159908    55.7439800947    57.1003952077     0.0236739097     0.0001194576 25172.1029251388
   -0.8244897959     0.9692999900    55.5367985066    56.8956761579     0.0237168891     0.0001193607 25174.2602501396
   -0.8224489796     0.9657029407    55.3307027670    56.6918999990     0.0237573735     0.0001192615 25176.4102330202
   -0.8204081633     0.9621245024    55.1256733545    56.4890495359     0.0237954033     0.0001191600 25178.5528122451
   -0.8183673469     0.9585643440    54.9216913014    56.2871081706     0.0238310200     0.0001190561 25180.6879288478
   -0.8163265306     0.9550221437    54.7187381727    56.0860596033     0.0238642609     0.0001189501 25182.8155263100
   -0.8142857143     0.9514975886    54.5167960447    55.8858842122     0.0238950963     0.0001188417 25184.9355504467
   -0.8122448980     0.9479903746    54.3158474857    55.6865718112     0.0239236526     0.0001187313 25187.0479492984
   -0.8102040816     0.9445002057    54.1158755372    55.4881079573     0.0239499738     0.0001186188 25189.1526730283
   -0.8081632653     0.9410267938    53.9168636960    55.2904786889     0.0239741043     0.0001185045 25191.2496739839
   -0.8061224490     0.9375698586    53.7187958976    55.0936705060     0.0239960887     0.0001183884 25193.3389084110
   -0.8040816327     0.9341291270    53.5216564995    54.8976703499     0.0240159722     0.0001182705 25195.4203362192
   -0.8020408163     0.9307043332    53.3254302661    54.7024655850     0.0240338002     0.0001181510 25197.4939201973
   -0.8000000000     0.9272952180    53.1301023542    54.5080439804     0.0240496183     0.0001180298 25199.5596259007
   -0.7979591837     0.9239015290    52.9356582985    54.3143936924     0.0240634721     0.0001179072 25201.6174215267
   -0.7959183673     0.9205230201    52.7420839987    54.1215032475     0.0240754077     0.0001177831 25203.6672777967
   -0.7938775510     0.9171594514    52.5493657065    53.9293597635     0.0240854400     0.0001176576 25205.7091678437
   -0.7918367347     0.9138105888    52.3574900132    53.7379541433     0.0240936443     0.0001175308 25207.7430671059
   -0.7897959184     0.9104762040    52.1664438387    53.5472762760     0.0241000725     0.0001174028 25209.7689532258
   -0.7877551020     0.9071560743    51.9762144194    53.3573160014     0.0241047699     0.0001172737 25211.7868059533
   -0.7857142857     0.9038499823    51.7867892983    53.1680634529     0.0241077819     0.0001171436 25213.7966070550
   -0.7836734694     0.9005577156    51.5981563144    52.9795090447     0.0241091533     0.0001170126 25215.7983422424
   -0.7816326531     0.8972790671    51.4103035930    52.7916434592     0.0241089288     0.0001168807 25217.7920032488
   -0.7795918367     0.8940138344    51.2232195364    52.6044576332     0.0241071525     0.0001167481 25219.7775809251
   -0.7775510204     0.8907618196    51.0368928148    52.4179427473     0.0241038685     0.0001166148 25221.7550684961
   -0.7755102041     0.8875228296    50.8513123577    52.2320902140     0.0240991198     0.0001164808 25223.7244616288
   -0.7734693878     0.8842966755    50.6664673458    52.0468916670     0.0240929495     0.0001163463 25225.6857583321
   -0.7714285714     0.8810831728    50.4823472028    51.8623389507     0.0240853997     0.0001162113 25227.6389588594
   -0.7693877551     0.8778821410    50.2989415880    51.6784241101     0.0240765120     0.0001160759 25229.5840656167
   -0.7673469388     0.8746934035    50.1162403889    51.4951393813     0.0240663275     0.0001159402 25231.5210830751
   -0.7653061224     0.8715167878    49.9342337142    51.3124771826     0.0240548864     0.0001158043 25233.4500176867
   -0.7632653061     0.8683521249    49.7529118872    51.1304301053     0.0240422284     0.0001156681 25235.3708778045
   -0.7612244898     0.8651992496    49.5722654391    50.9489909060     0.0240283923     0.0001155319 25237.2836736065
   -0.7591836735     0.8620580001    49.3922851027    50.7681524979     0.0240134161     0.0001153955 25239.1884170220
   -0.7571428571     0.8589282182    49.2129618067    50.5879079441     0.0239973371     0.0001152593 25241.0851216629
   -0.7551020408     0.8558097488    49.0342866700    50.4082504498     0.0239801918     0.0001151230 25242.9738026623
   -0.7530612245     0.8527024401    48.8562509955    50.2291733558     0.0239620156     0.0001149870 25244.8544773565
   -0.7510204082     0.8496061434    48.6788462656    50.0506701324     0.0239428432     0.0001148511 25246.7271652776
   -0.7489795918     0.8465207132    48.5020641364    49.8727343724     0.0239227086     0.0001147154 25248.5918872501
   -0.7469387755     0.8434460067    48.3258964330    49.6953597861     0.0239016445     0.0001145801 25250.4486653260
   -0.7448979592     0.8403818842    48.1503351447    49.5185401956     0.0238796830     0.0001144452 25252.2975227361
   -0.7428571429     0.8373282086    47.9753724206    49.3422695294     0.0238568551     0.0001143106 25254.1384838441
   -0.7408163265     0.8342848456    47.8010005647    49.1665418181     0.0238331909     0.0001141765 25255.9715741025
   -0.7387755102     0.8312516635    47.6272120320    48.9913511891     0.0238087197     0.0001140430 25257.7968200105
   -0.7367346939     0.8282285332    47.4539994242    48.8166918631     0.0237834698     0.0001139100 25259.6142490733
   -0.7346938776     0.8252153280    47.2813554856    48.6425581496     0.0237574683     0.0001137775 25261.4238897634
   -0.7326530612     0.8222119238    47.1092730996    48.4689444433     0.0237307417     0.0001136457 25263.2257714836
   -0.7306122449     0.8192181987    46.9377452847    48.2958452205     0.0237033155     0.0001135146 25265.0199245318
   -0.7285714286     0.8162340331    46.7667651908    48.1232550360     0.0236752141     0.0001133842 25266.8063800661
   -0.7265306122     0.8132593097    46.5963260961    47.9511685199     0.0236464611     0.0001132546 25268.5851700729
   -0.7244897959     0.8102939134    46.4264214035    47.7795803749     0.0236170794     0.0001131257 25270.3563273354
   -0.7224489796     0.8073377312    46.2570446372    47.6084853733     0.0235870905     0.0001129977 25272.1198854036
   -0.7204081633     0.8043906520    46.0881894401    47.4378788291     0.0235565237     0.0001128705 25273.8758785653
   -0.7183673469     0.8014525670    45.9198495701    47.2677554612     0.0235253958     0.0001127442 25275.6243418189
   -0.7163265306     0.7985233692    45.7520188977    47.0981100797     0.0234937232     0.0001126188 25277.3653093576
   -0.7142857143     0.7956029535    45.5846914028    46.9289377122     0.0234615241     0.0001124943 25279.0988159183
   -0.7122448980     0.7926912167    45.4178611722    46.7602334449     0.0234288159     0.0001123707 25280.8248983651
   -0.7102040816     0.7897880574    45.2515223968    46.5919924212     0.0233956154     0.0001122481 25282.5435935301
   -0.7081632653     0.7868933760    45.0856693690    46.4242098395     0.0233619384     0.0001121265 25284.2549382049
   -0.7061224490     0.7840070746    44.9202964804    46.2568809524     0.0233277998     0.0001120059 25285.9589691369
   -0.7040816327     0.7811290570    44.7553982192    46.0900010654     0.0232932139     0.0001118863 25287.6557230267
   -0.7020408163     0.7782592286    44.5909691678    45.9235655358     0.0232581942     0.0001117677 25289.3452365248
   -0.7000000000     0.7753974966    44.4270040008    45.7575697714     0.0232227536     0.0001116502 25291.0275462292
   -0.6979591837     0.7725437695    44.2634974825    45.5920092300     0.0231869041     0.0001115336 25292.7026886828
   -0.6959183673     0.7696979575    44.1004444649    45.4268794605     0.0231506580     0.0001114182 25294.3707003708
