shape model output for Uranus's 1-bar isobaric surface. models are described in Mankovich et al. 2026, PSJ.
this model assumes the symmetric wind profile from Sromovsky et al. (2015, Icarus 258) Equation (2).
these solutions vary the polar radius to fit the pair of Voyager 2 occultations reported in Lindal et al. 1987 to a Gaussian standard deviation of 50 m.
the wind fit spectral coefficients are also allowed to vary within their Gaussian uncertainties following S15 Table 5 (Fit 1).
this model has l=0,2,..., 18 wind spectral cofficients:  -1.231309 -3.594881 -0.109060  0.831030  0.298835 -0.227136 -0.223498 -0.023273  0.243259  0.054566
mu=sin(phi), phi [radians], and lat_deg [degrees] refer to planetocentric latitude; lat_pg_deg gives planetographic latitude in degrees.
              mu          phi_rad          lat_deg       lat_pg_deg          psi_rad    omega_rad_s-1             r_km 
   -1.0000000000     1.5707963268    90.0000000000    90.0000000000     0.0000000000     0.0001205399 24968.8270195657
   -0.9998144712     1.5515331758    88.8963027451    88.9517374323     0.0009675178     0.0001205614 24969.0596869455
   -0.9996289425     1.5435536961    88.4391122386    88.5175146959     0.0013683810     0.0001205826 24969.2923849851
   -0.9994434137     1.5374305386    88.0882811581    88.1843110293     0.0016760374     0.0001206035 24969.5251175072
   -0.9992578850     1.5322682374    87.7925030866    87.9033962752     0.0019354513     0.0001206240 24969.7578817587
   -0.9990723562     1.5277199472    87.5319052508    87.6558954846     0.0021640378     0.0001206443 24969.9906753391
   -0.9988868275     1.5236077873    87.2962958471    87.4321282913     0.0023707234     0.0001206642 24970.2234963634
   -0.9987012987     1.5198260904    87.0796205724    87.2263446813     0.0025608188     0.0001206839 24970.4563433300
   -0.9985157699     1.5163060092    86.8779347757    87.0347976252     0.0027377732     0.0001207033 24970.6892150140
   -0.9983302412     1.5129997231    86.6884985354    86.8548847209     0.0029039868     0.0001207224 24970.9221103948
   -0.9981447124     1.5098724146    86.5093169626    86.6847111711     0.0030612064     0.0001207412 24971.1550286056
   -0.9979591837     1.5068978001    86.3388841007    86.5228465509     0.0032107505     0.0001207597 24971.3879688992
   -0.9959183673     1.4804147767    84.8215186329    85.0817354354     0.0045416400     0.0001209456 24973.9515763902
   -0.9938775510     1.4600831244    83.6566007642    83.9752383033     0.0055612742     0.0001211009 24976.5168022362
   -0.9918367347     1.4429339318    82.6740244067    83.0417506268     0.0064180333     0.0001212287 24979.0826460454
   -0.9897959184     1.4278174270    81.8079124837    82.2186803098     0.0071692510     0.0001213318 24981.6482057814
   -0.9877551020     1.4141440401    81.0244851196    81.4739314512     0.0078443183     0.0001214130 24984.2127201630
   -0.9857142857     1.4015635991    80.3036789465    80.7884417699     0.0084607074     0.0001214746 24986.7754744556
   -0.9836734694     1.3898479862    79.6324237728    80.1497962187     0.0090298526     0.0001215190 24989.3358437203
   -0.9816326531     1.3788387766    79.0016425268    79.5493774654     0.0095597781     0.0001215482 24991.8932841462
   -0.9795918367     1.3684206412    78.4047273409    78.9809126225     0.0100563303     0.0001215641 24994.4473191364
   -0.9775510204     1.3585065303    77.8366906282    78.4396732979     0.0105240329     0.0001215686 24996.9975273633
   -0.9755102041     1.3490288258    77.2936581616    77.9219877218     0.0109664196     0.0001215633 24999.5435530660
   -0.9734693878     1.3399337634    76.7725494708    77.4249394494     0.0113863531     0.0001215496 25002.0850817524
   -0.9714285714     1.3311777582    76.2708673246    76.9461669388     0.0117862017     0.0001215289 25004.6218482818
   -0.9693877551     1.3227248956    75.7865539757    76.4837262769     0.0121679521     0.0001215025 25007.1536435070
   -0.9673469388     1.3145451659    75.3178899826    76.0359931557     0.0125332647     0.0001214713 25009.6803002497
   -0.9653061224     1.3066131882    74.8634211408    75.6015994446     0.0128836419     0.0001214366 25012.2016833483
   -0.9632653061     1.2989072697    74.4219045316    75.1793727205     0.0132203139     0.0001213991 25014.7176824384
   -0.9612244898     1.2914086960    73.9922679079    74.7683064181     0.0135444271     0.0001213598 25017.2282093679
   -0.9591836735     1.2841011890    73.5735785965    74.3675228287     0.0138569409     0.0001213191 25019.7332149473
   -0.9571428571     1.2769704845    73.1650193268    73.9762557502     0.0141587466     0.0001212780 25022.2326664309
   -0.9551020408     1.2700040004    72.7658691871    73.5938291179     0.0144506269     0.0001212368 25024.7265519374
   -0.9530612245     1.2631905710    72.3754884407    73.2196433199     0.0147332820     0.0001211961 25027.2148786099
   -0.9510204082     1.2565202341    71.9933062850    72.8531638229     0.0150073451     0.0001211564 25029.6976686019
   -0.9489795918     1.2499840563    71.6188108859    72.4939116877     0.0152733903     0.0001211179 25032.1749559291
   -0.9469387755     1.2435739909    71.2515411916    72.1414554021     0.0155319330     0.0001210809 25034.6467839812
   -0.9448979592     1.2372827589    70.8910801509    71.7954046950     0.0157834408     0.0001210458 25037.1132035425
   -0.9428571429     1.2311037506    70.5370490537    71.4554051267     0.0160283372     0.0001210126 25039.5742707083
   -0.9408163265     1.2250309424    70.1891027733    71.1211335640     0.0162670060     0.0001209816 25042.0300487007
   -0.9387755102     1.2190588266    69.8469257429    70.7922946153     0.0164997995     0.0001209529 25044.4806105312
   -0.9367346939     1.2131823517    69.5102285299    70.4686173396     0.0167270402     0.0001209265 25046.9260290259
   -0.9346938776     1.2073968710    69.1787449051    70.1498514786     0.0169490071     0.0001209025 25049.3663759076
   -0.9326530612     1.2016980990    68.8522293213    69.8357662209     0.0171659572     0.0001208809 25051.8017216884
   -0.9306122449     1.1960820730    68.5304547326    69.5261478148     0.0173781226     0.0001208615 25054.2321355940
   -0.9285714286     1.1905451201    68.2132107017    69.2207978135     0.0175857126     0.0001208444 25056.6576855133
   -0.9265306122     1.1850838286    67.9003017483    68.9195335073     0.0177889500     0.0001208297 25059.0784379671
   -0.9244897959     1.1796950225    67.5915459031    68.6221812309     0.0179879799     0.0001208170 25061.4944580930
   -0.9224489796     1.1743757395    67.2867734365    68.3285796199     0.0181829481     0.0001208063 25063.9058096417
   -0.9204081633     1.1691232113    66.9858257369    68.0385790914     0.0183740122     0.0001207975 25066.3125478533
   -0.9183673469     1.1639348463    66.6885543185    67.7520385260     0.0185613010     0.0001207905 25068.7147220455
   -0.9163265306     1.1588082142    66.3948199388    67.4688233756     0.0187448961     0.0001207850 25071.1123856275
   -0.9142857143     1.1537410325    66.1044918138    67.1888102049     0.0189249261     0.0001207810 25073.5055830882
   -0.9122448980     1.1487311539    65.8174469161    66.9118800273     0.0191014612     0.0001207782 25075.8943507408
   -0.9102040816     1.1437765557    65.5335693460    66.6379209158     0.0192745710     0.0001207765 25078.2787175337
   -0.9081632653     1.1388753294    65.2527497676    66.3668286733     0.0194443450     0.0001207756 25080.6587057688
   -0.9061224490     1.1340256726    64.9748848997    66.0985016824     0.0196108124     0.0001207754 25083.0343317415
   -0.9040816327     1.1292258803    64.6998770572    65.8328466079     0.0197740490     0.0001207758 25085.4056063100
   -0.9020408163     1.1244743380    64.4276337361    65.5697722601     0.0199340778     0.0001207764 25087.7725354051
   -0.9000000000     1.1197695150    64.1580672368    65.3091936071     0.0200909453     0.0001207771 25090.1351204849
   -0.8979591837     1.1151099586    63.8910943224    65.0510290959     0.0202446809     0.0001207778 25092.4933589441
   -0.8959183673     1.1104942885    63.6266359071    64.7952006270     0.0203953019     0.0001207782 25094.8472427462
   -0.8938775510     1.1059211919    63.3646167727    64.5416352864     0.0205428484     0.0001207781 25097.1967500713
   -0.8918367347     1.1013894190    63.1049653087    64.2902606017     0.0206873055     0.0001207773 25099.5418584157
   -0.8897959184     1.0968977787    62.8476132749    64.0410112178     0.0208287234     0.0001207757 25101.8825396973
   -0.8877551020     1.0924451350    62.5924955840    63.7938208874     0.0209670819     0.0001207731 25104.2187594833
   -0.8857142857     1.0880304035    62.3395501007    63.5486288338     0.0211024048     0.0001207693 25106.5504775454
   -0.8836734694     1.0836525480    62.0887174586    63.3053769925     0.0212347147     0.0001207641 25108.8776483626
   -0.8816326531     1.0793105778    61.8399408902    63.0640053958     0.0213639559     0.0001207574 25111.2002215782
   -0.8795918367     1.0750035447    61.5931660703    62.8244642211     0.0214902068     0.0001207490 25113.5181424150
   -0.8775510204     1.0707305406    61.3483409720    62.5866987546     0.0216134206     0.0001207388 25115.8313520534
   -0.8755102041     1.0664906953    61.1054157324    62.3506588885     0.0217335931     0.0001207266 25118.1397879748
   -0.8734693878     1.0622831742    60.8643425293    62.1163002607     0.0218507845     0.0001207124 25120.4433842766
   -0.8714285714     1.0581071761    60.6250754655    61.8835727629     0.0219649215     0.0001206959 25122.7420719577
   -0.8693877551     1.0539619319    60.3875704629    61.6524335005     0.0220760246     0.0001206770 25125.0357789930
   -0.8673469388     1.0498467020    60.1517851626    61.4228433588     0.0221841505     0.0001206558 25127.3244275970
   -0.8653061224     1.0457607758    59.9176788330    61.1947583433     0.0222892423     0.0001206319 25129.6079355856
   -0.8632653061     1.0417034691    59.6852122830    60.9681377537     0.0223912735     0.0001206053 25131.8862191110
   -0.8612244898     1.0376741234    59.4543477825    60.7429489504     0.0224903331     0.0001205761 25134.1591928399
   -0.8591836735     1.0336721045    59.2250489867    60.5191559131     0.0225864267     0.0001205442 25136.4267700906
   -0.8571428571     1.0296968008    58.9972808661    60.2967158021     0.0226794180     0.0001205090 25138.6888629588
   -0.8551020408     1.0257476230    58.7710096411    60.0756021429     0.0227694346     0.0001204710 25140.9453824329
   -0.8530612245     1.0218240020    58.5462027200    59.8557837571     0.0228565009     0.0001204301 25143.1962384996
   -0.8510204082     1.0179253889    58.3228286418    59.6372297181     0.0229406265     0.0001203863 25145.4413402411
   -0.8489795918     1.0140512533    58.1008570218    59.4199016192     0.0230216712     0.0001203391 25147.6805959237
   -0.8469387755     1.0102010827    57.8802585008    59.2037786323     0.0230997840     0.0001202887 25149.9139130799
   -0.8448979592     1.0063743820    57.6610046973    58.9888337577     0.0231749890     0.0001202354 25152.1411985832
   -0.8428571429     1.0025706719    57.4430681625    58.7750403957     0.0232473010     0.0001201790 25154.3623587174
   -0.8408163265     0.9987894889    57.2264223382    58.5623696171     0.0233166786     0.0001201193 25156.5772992395
   -0.8387755102     0.9950303845    57.0110415164    58.3507945366     0.0233831014     0.0001200562 25158.7859273059
   -0.8367346939     0.9912929239    56.7969008020    58.1402969013     0.0234466851     0.0001199900 25160.9881509388
   -0.8346938776     0.9875766864    56.5839760772    57.9308538133     0.0235074511     0.0001199208 25163.1838769222
   -0.8326530612     0.9838812640    56.3722439680    57.7224432048     0.0235654222     0.0001198484 25165.3730142400
   -0.8306122449     0.9802062611    56.1616818123    57.5150438076     0.0236206228     0.0001197730 25167.5554740125
   -0.8285714286     0.9765512941    55.9522676300    57.3086278612     0.0236729519     0.0001196942 25169.7311694012
   -0.8265306122     0.9729159908    55.7439800947    57.1031826476     0.0237225597     0.0001196124 25171.9000155186
   -0.8244897959     0.9692999900    55.5367985066    56.8986895930     0.0237694835     0.0001195275 25174.0619293434
   -0.8224489796     0.9657029407    55.3307027670    56.6951303717     0.0238137541     0.0001194398 25176.2168296392
   -0.8204081633     0.9621245024    55.1256733545    56.4924873183     0.0238554039     0.0001193491 25178.3646368785
   -0.8183673469     0.9585643440    54.9216913014    56.2907434028     0.0238944668     0.0001192556 25180.5052731697
   -0.8163265306     0.9550221437    54.7187381727    56.0898818748     0.0239309721     0.0001191593 25182.6386621885
   -0.8142857143     0.9514975886    54.5167960447    55.8898818288     0.0239648678     0.0001190600 25184.7647304589
   -0.8122448980     0.9479903746    54.3158474857    55.6907337410     0.0239962920     0.0001189580 25186.8834082765
   -0.8102040816     0.9445002057    54.1158755372    55.4924229066     0.0240252839     0.0001188534 25188.9946251524
   -0.8081632653     0.9410267938    53.9168636960    55.2949351411     0.0240518840     0.0001187463 25191.0983141218
   -0.8061224490     0.9375698586    53.7187958976    55.0982567611     0.0240761340     0.0001186367 25193.1944118269
   -0.8040816327     0.9341291270    53.5216564995    54.9023745632     0.0240980763     0.0001185247 25195.2828583558
   -0.8020408163     0.9307043332    53.3254302661    54.7072758053     0.0241177544     0.0001184105 25197.3635970895
   -0.8000000000     0.9272952180    53.1301023542    54.5129481880     0.0241352128     0.0001182940 25199.4365745562
   -0.7979591837     0.9239015290    52.9356582985    54.3193798354     0.0241504968     0.0001181753 25201.5017402938
   -0.7959183673     0.9205230201    52.7420839987    54.1265592786     0.0241636520     0.0001180546 25203.5590467192
   -0.7938775510     0.9171594514    52.5493657065    53.9344730741     0.0241746841     0.0001179317 25205.6084490034
   -0.7918367347     0.9138105888    52.3574900132    53.7431127281     0.0241836786     0.0001178070 25207.6499049538
   -0.7897959184     0.9104762040    52.1664438387    53.5524683573     0.0241906914     0.0001176805 25209.6833749017
   -0.7877551020     0.9071560743    51.9762144194    53.3625299429     0.0241957704     0.0001175523 25211.7088218950
   -0.7857142857     0.9038499823    51.7867892983    53.1732877897     0.0241989637     0.0001174224 25213.7262124734
   -0.7836734694     0.9005577156    51.5981563144    52.9847325117     0.0242003200     0.0001172911 25215.7355161586
   -0.7816326531     0.8972790671    51.4103035930    52.7968550172     0.0241998876     0.0001171583 25217.7367057634
   -0.7795918367     0.8940138344    51.2232195364    52.6096464956     0.0241977153     0.0001170242 25219.7297572810
   -0.7775510204     0.8907618196    51.0368928148    52.4230984038     0.0241938516     0.0001168889 25221.7146497540
   -0.7755102041     0.8875228296    50.8513123577    52.2372024532     0.0241883452     0.0001167524 25223.6913651502
   -0.7734693878     0.8842966755    50.6664673458    52.0519505976     0.0241812445     0.0001166149 25225.6598882441
   -0.7714285714     0.8810831728    50.4823472028    51.8673350207     0.0241725975     0.0001164764 25227.6202065035
   -0.7693877551     0.8778821410    50.2989415880    51.6833481251     0.0241624523     0.0001163371 25229.5723099821
   -0.7673469388     0.8746934035    50.1162403889    51.4999825206     0.0241508562     0.0001161969 25231.5161912160
   -0.7653061224     0.8715167878    49.9342337142    51.3172310138     0.0241378564     0.0001160561 25233.4518451257
   -0.7632653061     0.8683521249    49.7529118872    51.1350865978     0.0241234995     0.0001159147 25235.3792689222
   -0.7612244898     0.8651992496    49.5722654391    50.9535424423     0.0241078316     0.0001157728 25237.2984631411
   -0.7591836735     0.8620580001    49.3922851027    50.7725918843     0.0240908980     0.0001156305 25239.2094326186
   -0.7571428571     0.8589282182    49.2129618067    50.5922284189     0.0240727436     0.0001154879 25241.1121829206
   -0.7551020408     0.8558097488    49.0342866700    50.4124456905     0.0240534125     0.0001153450 25243.0067219601
   -0.7530612245     0.8527024401    48.8562509955    50.2332374844     0.0240329480     0.0001152019 25244.8930599807
   -0.7510204082     0.8496061434    48.6788462656    50.0545977195     0.0240113926     0.0001150588 25246.7712094683
   -0.7489795918     0.8465207132    48.5020641364    49.8765204404     0.0239887879     0.0001149156 25248.6411850670
   -0.7469387755     0.8434460067    48.3258964330    49.6989998103     0.0239651749     0.0001147726 25250.5030034990
   -0.7448979592     0.8403818842    48.1503351447    49.5220301043     0.0239405934     0.0001146297 25252.3566834872
   -0.7428571429     0.8373282086    47.9753724206    49.3456057029     0.0239150823     0.0001144870 25254.2022456814
   -0.7408163265     0.8342848456    47.8010005647    49.1697210863     0.0238886796     0.0001143446 25256.0397125877
   -0.7387755102     0.8312516635    47.6272120320    48.9943708280     0.0238614224     0.0001142026 25257.8691085006
   -0.7367346939     0.8282285332    47.4539994242    48.8195495902     0.0238333465     0.0001140610 25259.6904594382
   -0.7346938776     0.8252153280    47.2813554856    48.6452521183     0.0238044869     0.0001139200 25261.5037930800
   -0.7326530612     0.8222119238    47.1092730996    48.4714732361     0.0237748775     0.0001137795 25263.3091381765
   -0.7306122449     0.8192181987    46.9377452847    48.2982078415     0.0237445510     0.0001136396 25265.1065241458
   -0.7285714286     0.8162340331    46.7667651908    48.1254509025     0.0237135392     0.0001135004 25266.8959837563
   -0.7265306122     0.8132593097    46.5963260961    47.9531974532     0.0236818727     0.0001133619 25268.6775508784
   -0.7244897959     0.8102939134    46.4264214035    47.7814425901     0.0236495811     0.0001132242 25270.4512602711
   -0.7224489796     0.8073377312    46.2570446372    47.6101814689     0.0236166929     0.0001130874 25272.2171475487
   -0.7204081633     0.8043906520    46.0881894401    47.4394098147     0.0235832445     0.0001129514 25273.9752491491
   -0.7183673469     0.8014525670    45.9198495701    47.2691227316     0.0235492592     0.0001128164 25275.7256023034
   -0.7163265306     0.7985233692    45.7520188977    47.0993153725     0.0235147595     0.0001126824 25277.4682450067
   -0.7142857143     0.7956029535    45.5846914028    46.9299831017     0.0234797695     0.0001125494 25279.2032159903
   -0.7122448980     0.7926912167    45.4178611722    46.7611213283     0.0234443124     0.0001124175 25280.9305546946
   -0.7102040816     0.7897880574    45.2515223968    46.5927255042     0.0234084102     0.0001122867 25282.6503012432
   -0.7081632653     0.7868933760    45.0856693690    46.4247911223     0.0233720837     0.0001121570 25284.3624964186
   -0.7061224490     0.7840070746    44.9202964804    46.2573137150     0.0233353529     0.0001120285 25286.0671816380
   -0.7040816327     0.7811290570    44.7553982192    46.0902888529     0.0232982367     0.0001119011 25287.7643989307
   -0.7020408163     0.7782592286    44.5909691678    45.9237121434     0.0232607530     0.0001117750 25289.4541909160
   -0.7000000000     0.7753974966    44.4270040008    45.7575792294     0.0232229187     0.0001116501 25291.1366007824
   -0.6979591837     0.7725437695    44.2634974825    45.5918857890     0.0231847497     0.0001115264 25292.8116722463
   -0.6959183673     0.7696979575    44.1004444649    45.4266275885     0.0231462620     0.0001114041 25294.4794486483
