shape model output for Uranus's 1-bar isobaric surface. models are described in Mankovich et al. 2026, PSJ.
this model assumes the symmetric wind profile from Sromovsky et al. (2015, Icarus 258) Equation (2).
these solutions vary the polar radius to fit the pair of Voyager 2 occultations reported in Lindal et al. 1987 to a Gaussian standard deviation of 50 m.
the wind fit spectral coefficients are also allowed to vary within their Gaussian uncertainties following S15 Table 5 (Fit 1).
this model has l=0,2,..., 18 wind spectral cofficients:  -1.244024 -3.620464 -0.104433  0.863087  0.316380 -0.210554 -0.242473 -0.036460  0.060080  0.026251
mu=sin(phi), phi [radians], and lat_deg [degrees] refer to planetocentric latitude; lat_pg_deg gives planetographic latitude in degrees.
              mu          phi_rad          lat_deg       lat_pg_deg          psi_rad    omega_rad_s-1             r_km 
   -1.0000000000     1.5707963268    90.0000000000    90.0000000000     0.0000000000     0.0001215635 24968.0248092516
   -0.9998144712     1.5515331758    88.8963027451    88.9524587561     0.0009801073     0.0001215602 24968.2605385923
   -0.9996289425     1.5435536961    88.4391122386    88.5185095098     0.0013857438     0.0001215569 24968.4962239878
   -0.9994434137     1.5374305386    88.0882811581    88.1854988974     0.0016967696     0.0001215535 24968.7318651776
   -0.9992578850     1.5322682374    87.7925030866    87.9047331395     0.0019587839     0.0001215502 24968.9674621310
   -0.9990723562     1.5277199472    87.5319052508    87.6573516998     0.0021894536     0.0001215468 24969.2030148440
   -0.9988868275     1.5236077873    87.2962958471    87.4336820875     0.0023978422     0.0001215435 24969.4385233167
   -0.9987012987     1.5198260904    87.0796205724    87.2279784637     0.0025893337     0.0001215401 24969.6739875492
   -0.9985157699     1.5163060092    86.8779347757    87.0364973342     0.0027674387     0.0001215367 24969.9094075412
   -0.9983302412     1.5129997231    86.6884985354    86.8566384792     0.0029345956     0.0001215333 24970.1447832913
   -0.9981447124     1.5098724146    86.5093169626    86.6865087532     0.0030925802     0.0001215300 24970.3801147974
   -0.9979591837     1.5068978001    86.3388841007    86.5246790299     0.0032427332     0.0001215266 24970.6154020568
   -0.9959183673     1.4804147767    84.8215186329    85.0835659067     0.0045735877     0.0001214892 24973.2006403395
   -0.9938775510     1.4600831244    83.6566007642    83.9766772699     0.0055863889     0.0001214518 24975.7805168169
   -0.9918367347     1.4429339318    82.6740244067    83.0426214757     0.0064332325     0.0001214149 24978.3550393201
   -0.9897959184     1.4278174270    81.8079124837    82.2189088158     0.0071732392     0.0001213789 24980.9242149539
   -0.9877551020     1.4141440401    81.0244851196    81.4735032725     0.0078368452     0.0001213440 24983.4880745437
   -0.9857142857     1.4015635991    80.3036789465    80.7873815471     0.0084422030     0.0001213107 24986.0466703708
   -0.9836734694     1.3898479862    79.6324237728    80.1481541843     0.0090011937     0.0001212790 24988.6000575982
   -0.9816326531     1.3788387766    79.0016425268    79.5472191022     0.0095221076     0.0001212493 24991.1482884918
   -0.9795918367     1.3684206412    78.4047273409    78.9783159566     0.0100110099     0.0001212216 24993.6914208511
   -0.9775510204     1.3585065303    77.8366906282    78.4367206396     0.0104724993     0.0001211962 24996.2295254500
   -0.9755102041     1.3490288258    77.2936581616    77.9187646303     0.0109101661     0.0001211731 24998.7626692117
   -0.9734693878     1.3399337634    76.7725494708    77.4215317369     0.0113268773     0.0001211524 25001.2909263055
   -0.9714285714     1.3311777582    76.2708673246    76.9426583561     0.0117249654     0.0001211341 25003.8143739394
   -0.9693877551     1.3227248956    75.7865539757    76.4801971822     0.0121063578     0.0001211182 25006.3330896909
   -0.9673469388     1.3145451659    75.3178899826    76.0325220477     0.0124726825     0.0001211048 25008.8471499461
   -0.9653061224     1.3066131882    74.8634211408    75.5982562187     0.0128252916     0.0001210938 25011.3566290032
   -0.9632653061     1.2989072697    74.4219045316    75.1762249731     0.0131653753     0.0001210852 25013.8615985790
   -0.9612244898     1.2914086960    73.9922679079    74.7654128381     0.0134939246     0.0001210788 25016.3621274005
   -0.9591836735     1.2841011890    73.5735785965    74.3649386643     0.0138118388     0.0001210748 25018.8582835007
   -0.9571428571     1.2769704845    73.1650193268    73.9740284459     0.0141198728     0.0001210728 25021.3501370542
   -0.9551020408     1.2700040004    72.7658691871    73.5919997935     0.0144186991     0.0001210729 25023.8377520811
   -0.9530612245     1.2631905710    72.3754884407    73.2182472122     0.0147089154     0.0001210749 25026.3211863591
   -0.9510204082     1.2565202341    71.9933062850    72.8522304083     0.0149910540     0.0001210787 25028.8004922513
   -0.9489795918     1.2499840563    71.6188108859    72.4934645424     0.0152655861     0.0001210841 25031.2757173913
   -0.9469387755     1.2435739909    71.2515411916    72.1415122175     0.0155329247     0.0001210911 25033.7469052566
   -0.9448979592     1.2372827589    70.8910801509    71.7959778680     0.0157934446     0.0001210995 25036.2140956503
   -0.9428571429     1.2311037506    70.5370490537    71.4565020321     0.0160474818     0.0001211091 25038.6773251104
   -0.9408163265     1.2250309424    70.1891027733    71.1227568651     0.0162953380     0.0001211198 25041.1366270927
   -0.9387755102     1.2190588266    69.8469257429    70.7944424764     0.0165372867     0.0001211314 25043.5920221551
   -0.9367346939     1.2131823517    69.5102285299    70.4712835538     0.0167735745     0.0001211437 25046.0435318325
   -0.9346938776     1.2073968710    69.1787449051    70.1530262464     0.0170044172     0.0001211567 25048.4911754644
   -0.9326530612     1.2016980990    68.8522293213    69.8394364108     0.0172300141     0.0001211700 25050.9349638479
   -0.9306122449     1.1960820730    68.5304547326    69.5302973515     0.0174505457     0.0001211837 25053.3749003930
   -0.9285714286     1.1905451201    68.2132107017    69.2254080575     0.0176661765     0.0001211974 25055.8109821054
   -0.9265306122     1.1850838286    67.9003017483    68.9245816186     0.0178770562     0.0001212111 25058.2432004276
   -0.9244897959     1.1796950225    67.5915459031    68.6276435494     0.0180833153     0.0001212246 25060.6715419603
   -0.9224489796     1.1743757395    67.2867734365    68.3344312706     0.0182850786     0.0001212377 25063.0959890841
   -0.9204081633     1.1691232113    66.9858257369    68.0447924309     0.0184824555     0.0001212503 25065.5165204956
   -0.9183673469     1.1639348463    66.6885543185    67.7585840194     0.0186755414     0.0001212623 25067.9331116726
   -0.9163265306     1.1588082142    66.3948199388    67.4756727562     0.0188644404     0.0001212734 25070.3457352782
   -0.9142857143     1.1537410325    66.1044918138    67.1959318033     0.0190492214     0.0001212836 25072.7543583587
   -0.9122448980     1.1487311539    65.8174469161    66.9192428546     0.0192299668     0.0001212927 25075.1589372610
   -0.9102040816     1.1437765557    65.5335693460    66.6454947548     0.0194067594     0.0001213006 25077.5594305965
   -0.9081632653     1.1388753294    65.2527497676    66.3745797727     0.0195796272     0.0001213070 25079.9557921914
   -0.9061224490     1.1340256726    64.9748848997    66.1064010704     0.0197486827     0.0001213121 25082.3479710832
   -0.9040816327     1.1292258803    64.6998770572    65.8408601221     0.0199139112     0.0001213155 25084.7359120625
   -0.9020408163     1.1244743380    64.4276337361    65.5778715947     0.0200754378     0.0001213173 25087.1195561527
   -0.9000000000     1.1197695150    64.1580672368    65.3173460839     0.0202332328     0.0001213171 25089.4988410350
   -0.8979591837     1.1151099586    63.8910943224    65.0592075111     0.0203874212     0.0001213151 25091.8737014269
   -0.8959183673     1.1104942885    63.6266359071    64.8033736908     0.0205379488     0.0001213110 25094.2440694195
   -0.8938775510     1.1059211919    63.3646167727    64.5497777971     0.0206849620     0.0001213049 25096.6098747769
   -0.8918367347     1.1013894190    63.1049653087    64.2983431823     0.0208283731     0.0001212965 25098.9710452051
   -0.8897959184     1.0968977787    62.8476132749    64.0490102111     0.0209683322     0.0001212859 25101.3275065908
   -0.8877551020     1.0924451350    62.5924955840    63.8017109898     0.0211047902     0.0001212729 25103.6791832185
   -0.8857142857     1.0880304035    62.3395501007    63.5563872371     0.0212378145     0.0001212574 25106.0259982272
   -0.8836734694     1.0836525480    62.0887174586    63.3129830132     0.0213674648     0.0001212396 25108.3678706491
   -0.8816326531     1.0793105778    61.8399408902    63.0714371760     0.0214936649     0.0001212191 25110.7047172016
   -0.8795918367     1.0750035447    61.5931660703    62.8317043323     0.0216165706     0.0001211961 25113.0364539391
   -0.8775510204     1.0707305406    61.3483409720    62.5937296089     0.0217361322     0.0001211704 25115.3629963581
   -0.8755102041     1.0664906953    61.1054157324    62.3574644044     0.0218523717     0.0001211420 25117.6842594912
   -0.8734693878     1.0622831742    60.8643425293    62.1228671077     0.0219653976     0.0001211111 25120.0001579916
   -0.8714285714     1.0581071761    60.6250754655    61.8898878265     0.0220751401     0.0001210772 25122.3106062088
   -0.8693877551     1.0539619319    60.3875704629    61.6584856267     0.0221816541     0.0001210405 25124.6155182557
   -0.8673469388     1.0498467020    60.1517851626    61.4286235032     0.0222850331     0.0001210013 25126.9148080697
   -0.8653061224     1.0457607758    59.9176788330    61.2002583814     0.0223852360     0.0001209591 25129.2083894668
   -0.8632653061     1.0417034691    59.6852122830    60.9733509812     0.0224822615     0.0001209140 25131.4961761899
   -0.8612244898     1.0376741234    59.4543477825    60.7478705903     0.0225762319     0.0001208662 25133.7780819524
   -0.8591836735     1.0336721045    59.2250489867    60.5237824540     0.0226671751     0.0001208158 25136.0540204768
   -0.8571428571     1.0296968008    58.9972808661    60.3010449938     0.0227549767     0.0001207622 25138.3239055296
   -0.8551020408     1.0257476230    58.7710096411    60.0796332575     0.0228397908     0.0001207058 25140.5876509515
   -0.8530612245     1.0218240020    58.5462027200    59.8595172642     0.0229216629     0.0001206468 25142.8451710999
   -0.8510204082     1.0179253889    58.3228286418    59.6406672372     0.0230006225     0.0001205852 25145.0963877491
   -0.8489795918     1.0140512533    58.1008570218    59.4230465646     0.0230765609     0.0001205204 25147.3412196693
   -0.8469387755     1.0102010827    57.8802585008    59.2066351021     0.0231496388     0.0001204530 25149.5795851572
   -0.8448979592     1.0063743820    57.6610046973    58.9914068241     0.0232198975     0.0001203830 25151.8114047029
   -0.8428571429     1.0025706719    57.4430681625    58.7773360996     0.0232873686     0.0001203104 25154.0366008828
   -0.8408163265     0.9987894889    57.2264223382    58.5643953683     0.0233520347     0.0001202350 25156.2550982578
   -0.8387755102     0.9950303845    57.0110415164    58.3525590282     0.0234138976     0.0001201569 25158.4668232780
   -0.8367346939     0.9912929239    56.7969008020    58.1418089324     0.0234730750     0.0001200763 25160.6717041930
   -0.8346938776     0.9875766864    56.5839760772    57.9321229273     0.0235296013     0.0001199933 25162.8696709669
   -0.8326530612     0.9838812640    56.3722439680    57.7234796343     0.0235835113     0.0001199078 25165.0606551985
   -0.8306122449     0.9802062611    56.1616818123    57.5158584181     0.0236348404     0.0001198200 25167.2445897213
   -0.8285714286     0.9765512941    55.9522676300    57.3092334943     0.0236835222     0.0001197295 25169.4214081201
   -0.8265306122     0.9729159908    55.7439800947    57.1035914017     0.0237296939     0.0001196367 25171.5910466713
   -0.8244897959     0.9692999900    55.5367985066    56.8989139263     0.0237733989     0.0001195417 25173.7534443217
   -0.8224489796     0.9657029407    55.3307027670    56.6951831264     0.0238146749     0.0001194445 25175.9085425437
   -0.8204081633     0.9621245024    55.1256733545    56.4923816631     0.0238535599     0.0001193452 25178.0562852141
   -0.8183673469     0.9585643440    54.9216913014    56.2904927761     0.0238900925     0.0001192438 25180.1966184991
   -0.8163265306     0.9550221437    54.7187381727    56.0895000049     0.0239243072     0.0001191404 25182.3294907465
   -0.8142857143     0.9514975886    54.5167960447    55.8893838044     0.0239561757     0.0001190348 25184.4548523826
   -0.8122448980     0.9479903746    54.3158474857    55.6901334412     0.0239858148     0.0001189273 25186.5726558162
   -0.8102040816     0.9445002057    54.1158755372    55.4917342481     0.0240132645     0.0001188180 25188.6828553461
   -0.8081632653     0.9410267938    53.9168636960    55.2941720275     0.0240385652     0.0001187069 25190.7854082478
   -0.8061224490     0.9375698586    53.7187958976    55.0974330331     0.0240617572     0.0001185941 25192.8802766248
   -0.8040816327     0.9341291270    53.5216564995    54.9015039506     0.0240828812     0.0001184797 25194.9674208622
   -0.8020408163     0.9307043332    53.3254302661    54.7063718808     0.0241019780     0.0001183637 25197.0468039018
   -0.8000000000     0.9272952180    53.1301023542    54.5120243230     0.0241190884     0.0001182462 25199.1183915627
   -0.7979591837     0.9239015290    52.9356582985    54.3184491581     0.0241342534     0.0001181273 25201.1821524116
   -0.7959183673     0.9205230201    52.7420839987    54.1256346338     0.0241475140     0.0001180069 25203.2380576397
   -0.7938775510     0.9171594514    52.5493657065    53.9335676168     0.0241588808     0.0001178852 25205.2860809465
   -0.7918367347     0.9138105888    52.3574900132    53.7422386719     0.0241684234     0.0001177622 25207.3261984290
   -0.7897959184     0.9104762040    52.1664438387    53.5516373988     0.0241761884     0.0001176380 25209.3583884759
   -0.7877551020     0.9071560743    51.9762144194    53.3617533575     0.0241822164     0.0001175127 25211.3826316684
   -0.7857142857     0.9038499823    51.7867892983    53.1725764043     0.0241865477     0.0001173864 25213.3989106844
   -0.7836734694     0.9005577156    51.5981563144    52.9840966792     0.0241892226     0.0001172591 25215.4072102087
   -0.7816326531     0.8972790671    51.4103035930    52.7963045942     0.0241902809     0.0001171309 25217.4075168662
   -0.7795918367     0.8940138344    51.2232195364    52.6091908218     0.0241897623     0.0001170019 25219.3998189439
   -0.7775510204     0.8907618196    51.0368928148    52.4227462841     0.0241877060     0.0001168721 25221.3841066869
   -0.7755102041     0.8875228296    50.8513123577    52.2369621422     0.0241841510     0.0001167415 25223.3603725419
   -0.7734693878     0.8842966755    50.6664673458    52.0518297866     0.0241791359     0.0001166104 25225.3286110676
   -0.7714285714     0.8810831728    50.4823472028    51.8673408267     0.0241726989     0.0001164786 25227.2888188478
   -0.7693877551     0.8778821410    50.2989415880    51.6834870824     0.0241648775     0.0001163463 25229.2409944083
   -0.7673469388     0.8746934035    50.1162403889    51.5002605744     0.0241557092     0.0001162135 25231.1851381375
   -0.7653061224     0.8715167878    49.9342337142    51.3176535161     0.0241452305     0.0001160803 25233.1212522113
   -0.7632653061     0.8683521249    49.7529118872    51.1356583053     0.0241334777     0.0001159468 25235.0493405203
   -0.7612244898     0.8651992496    49.5722654391    50.9542675161     0.0241204865     0.0001158130 25236.9694086010
   -0.7591836735     0.8620580001    49.3922851027    50.7734738920     0.0241062920     0.0001156790 25238.8814635702
   -0.7571428571     0.8589282182    49.2129618067    50.5932703379     0.0240909286     0.0001155448 25240.7855140646
   -0.7551020408     0.8558097488    49.0342866700    50.4136499138     0.0240744302     0.0001154104 25242.6815703402
   -0.7530612245     0.8527024401    48.8562509955    50.2346058282     0.0240568301     0.0001152760 25244.5696442086
   -0.7510204082     0.8496061434    48.6788462656    50.0561314316     0.0240381609     0.0001151416 25246.4497488742
   -0.7489795918     0.8465207132    48.5020641364    49.8782202104     0.0240184545     0.0001150073 25248.3218989106
   -0.7469387755     0.8434460067    48.3258964330    49.7008657818     0.0239977423     0.0001148730 25250.1861102074
   -0.7448979592     0.8403818842    48.1503351447    49.5240618876     0.0239760547     0.0001147389 25252.0423999191
   -0.7428571429     0.8373282086    47.9753724206    49.3478023897     0.0239534217     0.0001146049 25253.8907864173
   -0.7408163265     0.8342848456    47.8010005647    49.1720812645     0.0239298725     0.0001144712 25255.7312892438
   -0.7387755102     0.8312516635    47.6272120320    48.9968925989     0.0239054356     0.0001143378 25257.5639290660
   -0.7367346939     0.8282285332    47.4539994242    48.8222305853     0.0238801387     0.0001142046 25259.3887276347
   -0.7346938776     0.8252153280    47.2813554856    48.6480895177     0.0238540089     0.0001140719 25261.2057077427
   -0.7326530612     0.8222119238    47.1092730996    48.4744637877     0.0238270724     0.0001139395 25263.0148931863
   -0.7306122449     0.8192181987    46.9377452847    48.3013478804     0.0237993550     0.0001138076 25264.8163087271
   -0.7285714286     0.8162340331    46.7667651908    48.1287363711     0.0237708814     0.0001136761 25266.6099800568
   -0.7265306122     0.8132593097    46.5963260961    47.9566239218     0.0237416759     0.0001135452 25268.3959337285
   -0.7244897959     0.8102939134    46.4264214035    47.7850052778     0.0237117618     0.0001134148 25270.1741957322
   -0.7224489796     0.8073377312    46.2570446372    47.6138752651     0.0236811618     0.0001132850 25271.9447941016
   -0.7204081633     0.8043906520    46.0881894401    47.4432290349     0.0236499024     0.0001131558 25273.7077583584
   -0.7183673469     0.8014525670    45.9198495701    47.2730615146     0.0236180039     0.0001130273 25275.4631184295
   -0.7163265306     0.7985233692    45.7520188977    47.1033676824     0.0235854856     0.0001128995 25277.2109046296
   -0.7142857143     0.7956029535    45.5846914028    46.9341426609     0.0235523675     0.0001127723 25278.9511476454
   -0.7122448980     0.7926912167    45.4178611722    46.7653816396     0.0235186689     0.0001126459 25280.6838785199
   -0.7102040816     0.7897880574    45.2515223968    46.5970798728     0.0234844082     0.0001125202 25282.4091286371
   -0.7081632653     0.7868933760    45.0856693690    46.4292326779     0.0234496034     0.0001123953 25284.1269297081
   -0.7061224490     0.7840070746    44.9202964804    46.2618354331     0.0234142718     0.0001122712 25285.8373137572
   -0.7040816327     0.7811290570    44.7553982192    46.0948835760     0.0233784298     0.0001121479 25287.5403131087
   -0.7020408163     0.7782592286    44.5909691678    45.9283726019     0.0233420934     0.0001120255 25289.2359603742
   -0.7000000000     0.7753974966    44.4270040008    45.7622980620     0.0233052779     0.0001119039 25290.9242884409
   -0.6979591837     0.7725437695    44.2634974825    45.5966555625     0.0232679979     0.0001117832 25292.6053304595
   -0.6959183673     0.7696979575    44.1004444649    45.4314407952     0.0232302683     0.0001116634 25294.2791198336
