shape model output for Uranus's 1-bar isobaric surface. models are described in Mankovich et al. 2026, PSJ.
this model assumes the symmetric wind profile from Sromovsky et al. (2015, Icarus 258) Equation (2).
these solutions vary the polar radius to fit the pair of Voyager 2 occultations reported in Lindal et al. 1987 to a Gaussian standard deviation of 50 m.
the wind fit spectral coefficients are also allowed to vary within their Gaussian uncertainties following S15 Table 5 (Fit 1).
this model has l=0,2,..., 18 wind spectral cofficients:  -1.239154 -3.579221 -0.099910  0.852771  0.355606 -0.213929 -0.241127  0.035329  0.150478  0.089216
mu=sin(phi), phi [radians], and lat_deg [degrees] refer to planetocentric latitude; lat_pg_deg gives planetographic latitude in degrees.
              mu          phi_rad          lat_deg       lat_pg_deg          psi_rad    omega_rad_s-1             r_km 
   -1.0000000000     1.5707963268    90.0000000000    90.0000000000     0.0000000000     0.0001200962 24968.6239812873
   -0.9998144712     1.5515331758    88.8963027451    88.9514173371     0.0009619311     0.0001201189 24968.8553015170
   -0.9996289425     1.5435536961    88.4391122386    88.5170632239     0.0013605013     0.0001201413 24969.0866559139
   -0.9994434137     1.5374305386    88.0882811581    88.1837595760     0.0016664128     0.0001201634 24969.3180482143
   -0.9992578850     1.5322682374    87.7925030866    87.9027612298     0.0019243676     0.0001201851 24969.5494757075
   -0.9990723562     1.5277199472    87.5319052508    87.6551874121     0.0021516796     0.0001202066 24969.7809360323
   -0.9988868275     1.5236077873    87.2962958471    87.4313547473     0.0023572225     0.0001202276 24970.0124273346
   -0.9987012987     1.5198260904    87.0796205724    87.2255114660     0.0025462764     0.0001202486 24970.2439481383
   -0.9985157699     1.5163060092    86.8779347757    87.0339093495     0.0027222699     0.0001202692 24970.4754972392
   -0.9983302412     1.5129997231    86.6884985354    86.8539451873     0.0028875888     0.0001202895 24970.7070736342
   -0.9981447124     1.5098724146    86.5093169626    86.6837235909     0.0030439699     0.0001203095 24970.9386764715
   -0.9979591837     1.5068978001    86.3388841007    86.5218136874     0.0031927236     0.0001203293 24971.1703050170
   -0.9959183673     1.4804147767    84.8215186329    85.0803210742     0.0045169547     0.0001205288 24973.7197252369
   -0.9938775510     1.4600831244    83.6566007642    83.9735647995     0.0055320660     0.0001206981 24976.2712179371
   -0.9918367347     1.4429339318    82.6740244067    83.0398882347     0.0063855284     0.0001208402 24978.8237987650
   -0.9897959184     1.4278174270    81.8079124837    82.2166786628     0.0071343157     0.0001209581 24981.3765823669
   -0.9877551020     1.4141440401    81.0244851196    81.4718293023     0.0078076289     0.0001210545 24983.9288206533
   -0.9857142857     1.4015635991    80.3036789465    80.7862713157     0.0084228258     0.0001211316 24986.4798137684
   -0.9836734694     1.3898479862    79.6324237728    80.1475851654     0.0089912625     0.0001211917 24989.0289498965
   -0.9816326531     1.3788387766    79.0016425268    79.5471500810     0.0095209029     0.0001212370 24991.5756952468
   -0.9795918367     1.3684206412    78.4047273409    78.9786908020     0.0100175522     0.0001212692 24994.1195812465
   -0.9775510204     1.3585065303    77.8366906282    78.4374766641     0.0104856944     0.0001212903 24996.6601933743
   -0.9755102041     1.3490288258    77.2936581616    77.9198341484     0.0109288327     0.0001213017 24999.1971829671
   -0.9734693878     1.3399337634    76.7725494708    77.4228452251     0.0113498020     0.0001213048 25001.7302400473
   -0.9714285714     1.3311777582    76.2708673246    76.9441468832     0.0117509451     0.0001213011 25004.2591037573
   -0.9693877551     1.3227248956    75.7865539757    76.4817938591     0.0121342251     0.0001212918 25006.7835661911
   -0.9673469388     1.3145451659    75.3178899826    76.0341607717     0.0125012836     0.0001212776 25009.3034593071
   -0.9653061224     1.3066131882    74.8634211408    75.5998780276     0.0128535975     0.0001212599 25011.8186456153
   -0.9632653061     1.2989072697    74.4219045316    75.1777723037     0.0131923813     0.0001212393 25014.3290114033
   -0.9612244898     1.2914086960    73.9922679079    74.7668357281     0.0135187587     0.0001212168 25016.8344662912
   -0.9591836735     1.2841011890    73.5735785965    74.3661897108     0.0138336736     0.0001211928 25019.3349549147
   -0.9571428571     1.2769704845    73.1650193268    73.9750669203     0.0141379976     0.0001211681 25021.8304362807
   -0.9551020408     1.2700040004    72.7658691871    73.5927902986     0.0144324960     0.0001211432 25024.3208899616
   -0.9530612245     1.2631905710    72.3754884407    73.2187592901     0.0147178528     0.0001211184 25026.8063128482
   -0.9510204082     1.2565202341    71.9933062850    72.8524384322     0.0149946847     0.0001210943 25029.2867155579
   -0.9489795918     1.2499840563    71.6188108859    72.4933478631     0.0152635497     0.0001210711 25031.7621196136
   -0.9469387755     1.2435739909    71.2515411916    72.1410552003     0.0155249482     0.0001210490 25034.2325552096
   -0.9448979592     1.2372827589    70.8910801509    71.7951693358     0.0157793330     0.0001210284 25036.6980594318
   -0.9428571429     1.2311037506    70.5370490537    71.4553350271     0.0160271137     0.0001210093 25039.1586745813
   -0.9408163265     1.2250309424    70.1891027733    71.1212283745     0.0162686608     0.0001209918 25041.6144455730
   -0.9387755102     1.2190588266    69.8469257429    70.7925532203     0.0165043130     0.0001209762 25044.0654278599
   -0.9367346939     1.2131823517    69.5102285299    70.4690378545     0.0167343796     0.0001209624 25046.5116777007
   -0.9346938776     1.2073968710    69.1787449051    70.1504314201     0.0169591290     0.0001209505 25048.9532493418
   -0.9326530612     1.2016980990    68.8522293213    69.8365025028     0.0171788078     0.0001209403 25051.3901951014
   -0.9306122449     1.1960820730    68.5304547326    69.5270367988     0.0173936383     0.0001209319 25053.8225654532
   -0.9285714286     1.1905451201    68.2132107017    69.2218353611     0.0176038212     0.0001209252 25056.2504091075
   -0.9265306122     1.1850838286    67.9003017483    68.9207145584     0.0178095633     0.0001209203 25058.6737730900
   -0.9244897959     1.1796950225    67.5915459031    68.6235005795     0.0180110068     0.0001209168 25061.0927028168
   -0.9224489796     1.1743757395    67.2867734365    68.3300317797     0.0182082930     0.0001209147 25063.5072421674
   -0.9204081633     1.1691232113    66.9858257369    68.0401579053     0.0184015677     0.0001209139 25065.9174262534
   -0.9183673469     1.1639348463    66.6885543185    67.7537373443     0.0185909509     0.0001209143 25068.3232862109
   -0.9163265306     1.1588082142    66.3948199388    67.4706357847     0.0187765287     0.0001209156 25070.7248544085
   -0.9142857143     1.1537410325    66.1044918138    67.1907288954     0.0189584135     0.0001209177 25073.1221548146
   -0.9122448980     1.1487311539    65.8174469161    66.9138977459     0.0191366771     0.0001209205 25075.5152038536
   -0.9102040816     1.1437765557    65.5335693460    66.6400304905     0.0193113900     0.0001209237 25077.9040111808
   -0.9081632653     1.1388753294    65.2527497676    66.3690219184     0.0194826244     0.0001209272 25080.2885803685
   -0.9061224490     1.1340256726    64.9748848997    66.1007714770     0.0196504278     0.0001209309 25082.6689095154
   -0.9040816327     1.1292258803    64.6998770572    65.8351843456     0.0198148502     0.0001209345 25085.0449917878
   -0.9020408163     1.1244743380    64.4276337361    65.5721706947     0.0199759383     0.0001209378 25087.4168159033
   -0.9000000000     1.1197695150    64.1580672368    65.3116441577     0.0201337154     0.0001209406 25089.7843665614
   -0.8979591837     1.1151099586    63.8910943224    65.0535244842     0.0202882336     0.0001209429 25092.1476247966
   -0.8959183673     1.1104942885    63.6266359071    64.7977322451     0.0204394870     0.0001209444 25094.5065604265
   -0.8938775510     1.1059211919    63.3646167727    64.5441960588     0.0205875423     0.0001209449 25096.8611382465
   -0.8918367347     1.1013894190    63.1049653087    64.2928420187     0.0207323597     0.0001209442 25099.2113216718
   -0.8897959184     1.0968977787    62.8476132749    64.0436062618     0.0208740155     0.0001209423 25101.5570679687
   -0.8877551020     1.0924451350    62.5924955840    63.7964218063     0.0210124765     0.0001209389 25103.8983288117
   -0.8857142857     1.0880304035    62.3395501007    63.5512284278     0.0211477763     0.0001209339 25106.2350507871
   -0.8836734694     1.0836525480    62.0887174586    63.3079685220     0.0212799455     0.0001209272 25108.5671758494
   -0.8816326531     1.0793105778    61.8399408902    63.0665814451     0.0214089164     0.0001209184 25110.8946417350
   -0.8795918367     1.0750035447    61.5931660703    62.8270186665     0.0215347903     0.0001209077 25113.2173823372
   -0.8775510204     1.0707305406    61.3483409720    62.5892251308     0.0216575142     0.0001208949 25115.5353280480
   -0.8755102041     1.0664906953    61.1054157324    62.3531509908     0.0217770885     0.0001208796 25117.8484060683
   -0.8734693878     1.0622831742    60.8643425293    62.1187526914     0.0218935875     0.0001208622 25120.1565406903
   -0.8714285714     1.0581071761    60.6250754655    61.8859798518     0.0220069331     0.0001208421 25122.4596535559
   -0.8693877551     1.0539619319    60.3875704629    61.6547900745     0.0221171546     0.0001208194 25124.7576635843
   -0.8673469388     1.0498467020    60.1517851626    61.4251448928     0.0222243199     0.0001207941 25127.0504866609
   -0.8653061224     1.0457607758    59.9176788330    61.1970003255     0.0223283722     0.0001207661 25129.3380369935
   -0.8632653061     1.0417034691    59.6852122830    60.9703159262     0.0224292898     0.0001207350 25131.6202272288
   -0.8612244898     1.0376741234    59.4543477825    60.7450597661     0.0225271738     0.0001207012 25133.8969685904
   -0.8591836735     1.0336721045    59.2250489867    60.5211961344     0.0226220353     0.0001206646 25136.1681710131
   -0.8571428571     1.0296968008    58.9972808661    60.2986821604     0.0227137375     0.0001206246 25138.4337432664
   -0.8551020408     1.0257476230    58.7710096411    60.0774920839     0.0228024202     0.0001205817 25140.6935930675
   -0.8530612245     1.0218240020    58.5462027200    59.8575950933     0.0228881147     0.0001205358 25142.9476271850
   -0.8510204082     1.0179253889    58.3228286418    59.6389605847     0.0229708358     0.0001204869 25145.1957515331
   -0.8489795918     1.0140512533    58.1008570218    59.4215503373     0.0230504468     0.0001204346 25147.4378712999
   -0.8469387755     1.0102010827    57.8802585008    59.2053440544     0.0231271058     0.0001203791 25149.6738922959
   -0.8448979592     1.0063743820    57.6610046973    58.9903150671     0.0232008427     0.0001203207 25151.9037207773
   -0.8428571429     1.0025706719    57.4430681625    58.7764370905     0.0232716779     0.0001202591 25154.1272639887
   -0.8408163265     0.9987894889    57.2264223382    58.5636815241     0.0233395757     0.0001201944 25156.3444305470
   -0.8387755102     0.9950303845    57.0110415164    58.3520218461     0.0234045220     0.0001201263 25158.5551303887
   -0.8367346939     0.9912929239    56.7969008020    58.1414400903     0.0234666375     0.0001200552 25160.7592747188
   -0.8346938776     0.9875766864    56.5839760772    57.9319136456     0.0235259487     0.0001199811 25162.9567759624
   -0.8326530612     0.9838812640    56.3722439680    57.7234207224     0.0235824831     0.0001199040 25165.1475477187
   -0.8306122449     0.9802062611    56.1616818123    57.5159403212     0.0236362699     0.0001198240 25167.3315047174
   -0.8285714286     0.9765512941    55.9522676300    57.3094451594     0.0236872164     0.0001197406 25169.5085627765
   -0.8265306122     0.9729159908    55.7439800947    57.1039226000     0.0237354744     0.0001196544 25171.6786417366
   -0.8244897959     0.9692999900    55.5367985066    56.8993542881     0.0237810846     0.0001195653 25173.8416642540
   -0.8224489796     0.9657029407    55.3307027670    56.6957221153     0.0238240820     0.0001194735 25175.9975507757
   -0.8204081633     0.9621245024    55.1256733545    56.4930086208     0.0238645024     0.0001193789 25178.1462249259
   -0.8183673469     0.9585643440    54.9216913014    56.2911969654     0.0239023830     0.0001192816 25180.2876134263
   -0.8163265306     0.9550221437    54.7187381727    56.0902705928     0.0239377565     0.0001191818 25182.4216459531
   -0.8142857143     0.9514975886    54.5167960447    55.8902090373     0.0239705787     0.0001190790 25184.5482550004
   -0.8122448980     0.9479903746    54.3158474857    55.6910026410     0.0240009852     0.0001189738 25186.6673757519
   -0.8102040816     0.9445002057    54.1158755372    55.4926368269     0.0240290175     0.0001188662 25188.7789459593
   -0.8081632653     0.9410267938    53.9168636960    55.2950975243     0.0240547182     0.0001187563 25190.8829058266
   -0.8061224490     0.9375698586    53.7187958976    55.0983711469     0.0240781304     0.0001186441 25192.9791979007
   -0.8040816327     0.9341291270    53.5216564995    54.9024445741     0.0240992982     0.0001185298 25195.0677701542
   -0.8020408163     0.9307043332    53.3254302661    54.7073051312     0.0241182662     0.0001184133 25197.1485735684
   -0.8000000000     0.9272952180    53.1301023542    54.5129405699     0.0241350799     0.0001182948 25199.2215583289
   -0.7979591837     0.9239015290    52.9356582985    54.3193390509     0.0241497849     0.0001181744 25201.2866782875
   -0.7959183673     0.9205230201    52.7420839987    54.1264891267     0.0241624277     0.0001180521 25203.3438908177
   -0.7938775510     0.9171594514    52.5493657065    53.9343775552     0.0241730169     0.0001179279 25205.3931566610
   -0.7918367347     0.9138105888    52.3574900132    53.7429956644     0.0241816354     0.0001178020 25207.4344397809
   -0.7897959184     0.9104762040    52.1664438387    53.5523335094     0.0241883378     0.0001176745 25209.4677072241
   -0.7877551020     0.9071560743    51.9762144194    53.3623810343     0.0241931714     0.0001175456 25211.4929289886
   -0.7857142857     0.9038499823    51.7867892983    53.1731284938     0.0241961835     0.0001174152 25213.5100778985
   -0.7836734694     0.9005577156    51.5981563144    52.9845664387     0.0241974215     0.0001172835 25215.5191294843
   -0.7816326531     0.8972790671    51.4103035930    52.7966857025     0.0241969325     0.0001171506 25217.5200618694
   -0.7795918367     0.8940138344    51.2232195364    52.6094773876     0.0241947638     0.0001170165 25219.5128556620
   -0.7775510204     0.8907618196    51.0368928148    52.4229328532     0.0241909622     0.0001168813 25221.4974938518
   -0.7755102041     0.8875228296    50.8513123577    52.2370437025     0.0241855745     0.0001167452 25223.4739622605
   -0.7734693878     0.8842966755    50.6664673458    52.0518017712     0.0241786470     0.0001166082 25225.4422508408
   -0.7714285714     0.8810831728    50.4823472028    51.8671991160     0.0241702255     0.0001164704 25227.4023508637
   -0.7693877551     0.8778821410    50.2989415880    51.6832280035     0.0241603557     0.0001163319 25229.3542561866
   -0.7673469388     0.8746934035    50.1162403889    51.4998809000     0.0241490826     0.0001161928 25231.2979633091
   -0.7653061224     0.8715167878    49.9342337142    51.3171504613     0.0241364505     0.0001160531 25233.2334712682
   -0.7632653061     0.8683521249    49.7529118872    51.1350295235     0.0241225034     0.0001159129 25235.1607815383
   -0.7612244898     0.8651992496    49.5722654391    50.9535110930     0.0241072844     0.0001157724 25237.0798979355
   -0.7591836735     0.8620580001    49.3922851027    50.7725883386     0.0240908361     0.0001156315 25238.9908265266
   -0.7571428571     0.8589282182    49.2129618067    50.5922545825     0.0240732003     0.0001154905 25240.8935755410
   -0.7551020408     0.8558097488    49.0342866700    50.4125032928     0.0240544179     0.0001153492 25242.7881552881
   -0.7530612245     0.8527024401    48.8562509955    50.2333280756     0.0240345291     0.0001152079 25244.6745780770
   -0.7510204082     0.8496061434    48.6788462656    50.0547226680     0.0240135733     0.0001150666 25246.5528581401
   -0.7489795918     0.8465207132    48.5020641364    49.8766809309     0.0239915890     0.0001149253 25248.4230115605
   -0.7469387755     0.8434460067    48.3258964330    49.6991968432     0.0239686138     0.0001147842 25250.2850562015
   -0.7448979592     0.8403818842    48.1503351447    49.5222644951     0.0239446843     0.0001146433 25252.1390116402
   -0.7428571429     0.8373282086    47.9753724206    49.3458780825     0.0239198362     0.0001145026 25253.9848991031
   -0.7408163265     0.8342848456    47.8010005647    49.1700319016     0.0238941044     0.0001143623 25255.8227414047
   -0.7387755102     0.8312516635    47.6272120320    48.9947203438     0.0238675226     0.0001142223 25257.6525628889
   -0.7367346939     0.8282285332    47.4539994242    48.8199378907     0.0238401236     0.0001140828 25259.4743893726
   -0.7346938776     0.8252153280    47.2813554856    48.6456791098     0.0238119393     0.0001139438 25261.2882480917
   -0.7326530612     0.8222119238    47.1092730996    48.4719386504     0.0237830005     0.0001138053 25263.0941676492
   -0.7306122449     0.8192181987    46.9377452847    48.2987112389     0.0237533369     0.0001136674 25264.8921779658
   -0.7285714286     0.8162340331    46.7667651908    48.1259916762     0.0237229775     0.0001135302 25266.6823102320
   -0.7265306122     0.8132593097    46.5963260961    47.9537748335     0.0236919499     0.0001133937 25268.4645968590
   -0.7244897959     0.8102939134    46.4264214035    47.7820556490     0.0236602810     0.0001132579 25270.2390698036
   -0.7224489796     0.8073377312    46.2570446372    47.6108291255     0.0236279967     0.0001131229 25272.0057624708
   -0.7204081633     0.8043906520    46.0881894401    47.4400907769     0.0235951295     0.0001129888 25273.7647102798
   -0.7183673469     0.8014525670    45.9198495701    47.2698355827     0.0235617008     0.0001128555 25275.5159491488
   -0.7163265306     0.7985233692    45.7520188977    47.1000585797     0.0235277309     0.0001127231 25277.2595154754
   -0.7142857143     0.7956029535    45.5846914028    46.9307550030     0.0234932418     0.0001125917 25278.9954461164
   -0.7122448980     0.7926912167    45.4178611722    46.7619201393     0.0234582543     0.0001124612 25280.7237783700
   -0.7102040816     0.7897880574    45.2515223968    46.5935493253     0.0234227886     0.0001123318 25282.4445499577
   -0.7081632653     0.7868933760    45.0856693690    46.4256379459     0.0233868635     0.0001122033 25284.1577990072
   -0.7061224490     0.7840070746    44.9202964804    46.2581814330     0.0233504974     0.0001120759 25285.8635640361
   -0.7040816327     0.7811290570    44.7553982192    46.0911752639     0.0233137075     0.0001119496 25287.5618839365
   -0.7020408163     0.7782592286    44.5909691678    45.9246149607     0.0232765101     0.0001118244 25289.2527979596
   -0.7000000000     0.7753974966    44.4270040008    45.7584960887     0.0232389209     0.0001117003 25290.9363457015
   -0.6979591837     0.7725437695    44.2634974825    45.5928142556     0.0232009545     0.0001115773 25292.6125670894
   -0.6959183673     0.7696979575    44.1004444649    45.4275651581     0.0231626257     0.0001114555 25294.2815023681
